# ------------------------------------------------------------------
# Generated by forcedphotometry_trim.pl, v3.7 on 2022-08-04 at 14:03:57
#
# Requested input R.A. = 159.64009166666665 degrees
# Requested input Dec. = -7.170683333333334 degrees
# Requested JD start = 2458297.7039930555 days
# Requested JD end = 2458797.7039930555 days
# Authenticated program IDs = 1
#
# Column definitions:
# index = sequential counter
# field = ZTF Field identifier
# ccdid = CCD identifier (1..16)
# qid = Quadrant (CCD-amplifier) identifier (0..3)
# filter = Filter string: ZTF_g, ZTF_r, ZTF_i
# pid = processed image Operations DB identifier
# infobitssci = processing summary/QA bits for sci image
# sciinpseeing = Effective FWHM of sci image [pixels]
# scibckgnd = Background level in sci image [DN]
# scisigpix = Robust sigma per pixel in sci image [DN]
# zpmaginpsci = Photometric zeropoint for sci image [mag]
# zpmaginpsciunc = 1-sigma uncertainty in zpmaginpsci [mag]
# zpmaginpscirms = RMS (deviation from average) in difference between instrumental mags and PS1 calibrators [mag]
# clrcoeff = Linear color coefficient from calibration; for ZTF_g,r,i, PS1 color used is g-r, g-r, r-i respectively
# clrcoeffunc = 1-sigma uncertainty in clrcoeff
# ncalmatches = Number of PS1 calibrators used in initial calibration of sci image
# exptime = Integration time for sci image [sec]
# adpctdif1 = Full sci image astrometric RMS along R.A. with respect to Gaia1 [arcsec]
# adpctdif2 = Full sci image astrometric RMS along Dec. with respect to Gaia1 [arcsec]
# diffmaglim = Magnitude limit in difference image [mag]
# zpdiff = Photometric zeropoint for difference image [mag]
# programid = Program identifier [0=engineering; 1=public; 2=private; 3=Caltech time]
# jd = Julian Date at start of exposure [days]
# rfid = Rerence image Operations DB identifier
# forcediffimflux = Forced difference image PSF-fit flux [DN]
# forcediffimfluxunc = 1-sigma uncertainty in forcediffimflux [DN]
# forcediffimsnr = Signal-to-noise ratio for forcediffimflux measurement
# forcediffimchisq = Reduced chi-square in PSF-fit
# forcediffimfluxap = Forced difference image aperture flux using a fixed 9-pixel diameter aperture [DN]
# forcediffimfluxuncap = 1-sigma uncertainty in forcediffimfluxap [DN]
# forcediffimsnrap = Signal-to-noise ratio for forcediffimfluxap measurement
# aperturecorr = Aperture (curve-of-growth) correction factor that was applied to forcediffimfluxap measurement
# dnearestrefsrc = Distance to nearest ref image source if found within 5 arcsec [arcsec]
# nearestrefmag = Magnitude of nearest ref image source [mag]
# nearestrefmagunc = 1-sigma uncertainty in nearestrefmag [mag]
# nearestrefchi = Chi parameter for nearestrefmag measurement (ratio: RMS in PSF-fit residuals / expected RMS from priors)
# nearestrefsharp = Sharp parameter for nearestrefmag measurement (~0 => PSF like; >>0 => extended; <<0 => pixel spike or hard edge)
# refjdstart = JD of earliest sci image used for ref image [days]
# refjdend = JD of latest sci image used for ref image [days]
# procstatus = Per-epoch processing status codes (0 => no warnings); if non-zero, see accompanying log file and document link below
#
# Documentation: https://zwicky.tf/vgt
#
# ------------------------------------------------------------------
# Order of columns below:
 index, field, ccdid, qid, filter, pid, infobitssci, sciinpseeing, scibckgnd, scisigpix, zpmaginpsci, zpmaginpsciunc, zpmaginpscirms, clrcoeff, clrcoeffunc, ncalmatches, exptime, adpctdif1, adpctdif2, diffmaglim, zpdiff, programid, jd, rfid, forcediffimflux, forcediffimfluxunc, forcediffimsnr, forcediffimchisq, forcediffimfluxap, forcediffimfluxuncap, forcediffimsnrap, aperturecorr, dnearestrefsrc, nearestrefmag, nearestrefmagunc, nearestrefchi, nearestrefsharp, refjdstart, refjdend, procstatus
#
 0 367 15 3 ZTF_g 673541205915 0 2.4638 615.313 6.56899 26.1951 1.2102e-05 0.0327157 -0.0455808 2.0488e-05 552 30. 0.055058 0.048916 20.1698 26.1951 1 2458428.0412037 367120159 956.130602632926 49.6647622910406 21.4152751493137 3.36281516706156 1205.2410084701 79.8377894809987 15.1977952282152 1.05208457412206 0.201734294401603 14.1460000991821 0.0430000014603138 4.99200010299683 0.158000007271767 2458204.687002 2458465.019988 56
 1 367 15 3 ZTF_g 676520575915 0 2.7107 624.817 4.47453 26.2102 1.24289e-05 0.0338418 -0.0694396 1.99675e-05 572 30. 0.056716 0.056562 20.4156 26.2102 1 2458431.0205787 367120159 491.354508858035 44.6511872396712 12.2409954308955 3.20829691939806 219.782718160802 68.023881675521 3.25272480727041 1.05555290550982 0.201734294401603 14.1460000991821 0.0430000014603138 4.99200010299683 0.158000007271767 2458204.687002 2458465.019988 56
 2 367 15 3 ZTF_g 684482265915 0 2.3024 592.436 5.38288 26.132 1.21296e-05 0.0332876 -0.0272763 1.95761e-05 569 30. 0.061406 0.068799 20.3639 26.132 3 2458438.9822685 367120159 -139.963782568307 39.8649655943174 -3.90552190879377 6.59823858248125 -205.35062794369 65.4474772456707 -3.15877226958195 1.05457636964964 0.201734294401603 14.1460000991821 0.0430000014603138 4.99200010299683 0.158000007271767 2458204.687002 2458465.019988 56
 3 367 15 3 ZTF_r 684553795915 0 2.0417 608.259 9.14614 26.2 5.454e-06 0.0224118 0.0944782 8.6105e-06 579 30. 0.05511 0.048894 20.0361 26.2 3 2458439.0537963 367120259 -994.129455507429 55.7621200235478 -19.8316325087816 4.77986576137137 -366.24135521579 103.765143093325 -3.55329353213749 1.03862276241067 0.273081158351051 13.7030004501343 0.0529999993741512 4.58799982070923 0.349000006914139 2458165.895058 2458450.042049 56
 4 367 15 3 ZTF_g 685526035915 0 1.9082 548.344 4.96969 26.0668 8.3128e-06 0.0278173 -0.0610416 1.31557e-05 582 30. 0.044542 0.049109 20.4739 26.0668 1 2458440.0260301 367120159 -80.9640962898644 29.8489578706869 -3.01729727664551 4.12171602879336 121.293308926774 53.7684839961473 2.27103718136716 1.03721917556934 0.201734294401603 14.1460000991821 0.0430000014603138 4.99200010299683 0.158000007271767 2458204.687002 2458465.019988 56
 5 367 15 3 ZTF_g 687501005915 0 2.8173 523.706 5.08814 26.0176 1.7371e-05 0.038395 -0.0485677 3.04128e-05 532 30. 0.058346 0.054658 20.112 26.0176 3 2458442.0010069 367120159 224.688723722345 46.4344707919447 5.38264302052114 1.89740873067702 401.378326872168 70.6086728745597 5.72283285531781 1.06690158564667 0.201734294401603 14.1460000991821 0.0430000014603138 4.99200010299683 0.158000007271767 2458204.687002 2458465.019988 56
 6 367 15 3 ZTF_g 687520675915 0 2.5416 535.022 5.09793 26.0225 1.47069e-05 0.0362577 -0.0363637 2.43727e-05 557 30. 0.051175 0.057814 20.2502 26.0225 1 2458442.0206713 367120159 -1007.05700260506 42.5661128923231 -26.317513977338 3.68065902522692 -778.868508796893 69.1075068489324 -11.3462960649098 1.06090619826453 0.201734294401603 14.1460000991821 0.0430000014603138 4.99200010299683 0.158000007271767 2458204.687002 2458465.019988 56
 7 367 15 3 ZTF_r 687554545915 0 1.994 297.403 10.8501 25.4372 1.8006e-05 0.040769 0.0955475 2.81312e-05 577 30. 0.052831 0.04881 19.1429 25.4372 1 2458442.0545486 367120259 1056.37106646979 103.104577568409 11.3970735622707 2.17353207337985 1459.57837157577 195.127202685617 7.53051699435523 1.0352698923874 0.273081158351051 13.7030004501343 0.0529999993741512 4.58799982070923 0.349000006914139 2458165.895058 2458450.042049 56
 8 367 15 3 ZTF_r 689479475915 0 1.8469 579.74 13.1467 26.1653 8.0792e-06 0.0271543 0.0965087 1.25972e-05 579 30. 0.053125 0.05717 19.7962 26.1653 3 2458443.9794792 367120259 1140.99282321415 61.8997405401633 20.5044859149964 3.91143413683037 1153.18455939036 121.032064471573 9.59209717536376 1.03085816361263 0.273081158351051 13.7030004501343 0.0529999993741512 4.58799982070923 0.349000006914139 2458165.895058 2458450.042049 56
 9 367 15 3 ZTF_g 689490265915 0 1.8961 622.388 12.8909 26.1738 1.63e-05 0.035823 -0.012978 3.10029e-05 485 30. 0.045401 0.057695 19.7694 26.1738 3 2458443.9902662 367120159 -543.116915769835 61.7783963663108 -9.77938400355281 2.81160455646721 -334.430111117549 116.677033807586 -2.88559372971857 1.04164845621777 0.201734294401603 14.1460000991821 0.0430000014603138 4.99200010299683 0.158000007271767 2458204.687002 2458465.019988 56
 10 367 15 3 ZTF_r 693479895915 0 2.8879 589.591 12.1856 26.1853 2.65797e-05 0.049363 0.0789251 4.17558e-05 575 30. 0.084115 0.082796 19.3598 26.1853 1 2458447.9798958 367120259 565.305787340528 106.938944525731 5.88033866923442 4.06840618009529 633.326816207323 164.820520045827 3.86840369497441 1.05843470679676 0.273081158351051 13.7030004501343 0.0529999993741512 4.58799982070923 0.349000006914139 2458165.895058 2458450.042049 56
 11 367 15 3 ZTF_r 693500155915 0 2.4158 597.358 11.7154 26.1911 1.0073e-05 0.0302881 0.0952805 1.58686e-05 576 30. 0.061812 0.062943 19.5823 26.1911 3 2458448.0001505 367120259 2027.35284956727 85.4042301850005 26.4061302122371 4.80866579352082 1424.89306829198 139.83187797465 10.2586751023116 1.04624761308242 0.273081158351051 13.7030004501343 0.0529999993741512 4.58799982070923 0.349000006914139 2458165.895058 2458450.042049 56
 12 367 15 3 ZTF_r 694495965915 0 3.2144 588.011 11.558 26.1636 2.07574e-05 0.043778 0.108127 3.23646e-05 580 30. 0.08603 0.069131 19.3008 26.1636 3 2458448.9959606 367120259 -1075.68588688236 171.432131261641 -6.97988146608884 1.91997472739486 79.5327995395053 246.322236860978 0.325055742188254 1.08000479450877 0.273081158351051 13.7030004501343 0.0529999993741512 4.58799982070923 0.349000006914139 2458165.895058 2458450.042049 56
 13 367 15 3 ZTF_r 695479095915 0 2.0985 449.471 16.2539 25.8887 1.81569e-05 0.0405829 0.102111 2.8533e-05 569 30. 0.068374 0.054153 19.0847 25.8887 1 2458449.9790972 367120259 1343.05251959649 82.1247033716233 18.1917292235898 1.49501165053453 1619.42168626698 147.21773330772 11.0742676705224 1.04554951132 0.273081158351051 13.7030004501343 0.0529999993741512 4.58799982070923 0.349000006914139 2458165.895058 2458450.042049 56
 14 367 15 3 ZTF_r 695542045915 0 2.3216 614.427 10.5503 26.2081 8.1725e-06 0.0273659 0.103375 1.28294e-05 579 30. 0.05847 0.048991 19.7974 26.2081 3 2458450.0420486 367120259 453.724910904964 80.4549333566758 6.27328106218268 3.0465752991567 278.533888197209 134.863390979932 2.07921384685755 1.05906601266906 0.273081158351051 13.7030004501343 0.0529999993741512 4.58799982070923 0.349000006914139 2458165.895058 2458450.042049 56
 15 367 15 3 ZTF_g 696464585915 0 2.5654 628.19 11.7257 26.214 2.20616e-05 0.0404367 -0.0456303 4.44763e-05 469 30. 0.057561 0.051839 19.578 26.214 3 2458450.9645833 367120159 -219.218817604517 63.9924165450629 -3.81069439618485 2.6392679319616 -318.745651888795 106.289384301834 -3.01904488675952 1.05058677122789 0.201734294401603 14.1460000991821 0.0430000014603138 4.99200010299683 0.158000007271767 2458204.687002 2458465.019988 56
 16 367 15 3 ZTF_g 696479035915 0 3.0813 645.364 11.0444 26.2638 2.34473e-05 0.0395204 -0.0733589 4.94441e-05 427 30. 0.058474 0.070031 19.4826 26.2638 1 2458450.9790394 367120159 -650.023763652315 71.353373911745 -10.1337344980179 2.37221991787032 -113.800212791765 106.861015032126 -1.07210907306055 1.06401716526035 0.201734294401603 14.1460000991821 0.0430000014603138 4.99200010299683 0.158000007271767 2458204.687002 2458465.019988 56
 17 367 15 3 ZTF_g 708481355915 48 2.7621 18.3116 6.2667 22.5852 0.00616629 0.0591003 -0.246981 0.0204101 21 30. 0.073533 0.06426 16.504 22.5852 3 2458462.9813542 367120159 74.4915618259836 34.8538945952594 2.37744548663424 1.01173481461064 141.189633102488 56.948462442785 2.49595067729126 1.05357699896773 0.201734294401603 14.1460000991821 0.0430000014603138 4.99200010299683 0.158000007271767 2458204.687002 2458465.019988 56
 18 367 15 3 ZTF_g 708499465915 0 2.4958 82.587 5.82407 24.0452 9.68591e-05 0.0485676 -0.0796813 0.000253835 202 30. 0.058961 0.054926 18.1173 24.0452 1 2458462.9994676 367120159 131.173567801961 38.4278374995959 3.79712755733689 1.09496696867691 330.762711295192 66.7220635758277 4.99070920982133 1.04036837996941 0.201734294401603 14.1460000991821 0.0430000014603138 4.99200010299683 0.158000007271767 2458204.687002 2458465.019988 56
 19 367 15 3 ZTF_g 710519985915 0 2.6163 672.169 4.61587 26.3018 8.7893e-06 0.0284051 -0.0830881 1.38637e-05 579 30. 0.058326 0.055566 20.4915 26.3018 3 2458465.0199884 367120159 -1166.0674789389 50.5352744489974 -25.6675168456522 6.40566667510607 -544.917850685028 83.6436426267411 -6.55863239014181 1.04671653780178 0.201734294401603 14.1460000991821 0.0430000014603138 4.99200010299683 0.158000007271767 2458204.687002 2458465.019988 56
 20 367 15 3 ZTF_r 711501005915 0 2.4914 613.012 6.38819 26.2234 6.2608e-06 0.0238709 0.0884994 9.77463e-06 577 30. 0.060705 0.044981 20.1669 26.2234 1 2458466.0010069 367120259 -1444.36620304019 89.3910444677166 -17.9737255990487 4.84278116263811 -415.06871400521 154.233699305534 -2.70929263550371 1.04426784632999 0.273081158351051 13.7030004501343 0.0529999993741512 4.58799982070923 0.349000006914139 2458165.895058 2458450.042049 56
 21 367 15 3 ZTF_r 711501925915 0 2.7925 611.641 6.39478 26.211 6.1767e-06 0.0237871 0.0908967 9.63202e-06 578 30. 0.058342 0.046701 20.0694 26.211 3 2458466.0019213 367120259 -941.191906575474 68.2091334946119 -15.3493663823051 4.9347064068555 -97.0768777425425 111.685495996928 -0.875052711429391 1.04994078953688 0.273081158351051 13.7030004501343 0.0529999993741512 4.58799982070923 0.349000006914139 2458165.895058 2458450.042049 56
 22 367 15 3 ZTF_g 711522985915 0 2.7758 674.186 4.85542 26.3183 1.0227e-05 0.0307544 -0.0887576 1.62097e-05 581 30. 0.058338 0.055557 20.4133 26.3183 3 2458466.0229861 367120159 -384.924681850586 48.8515780213057 -8.76500087059895 4.98162358608972 106.803619679012 78.8604051411839 1.36345924180821 1.04365472244557 0.201734294401603 14.1460000991821 0.0430000014603138 4.99200010299683 0.158000007271767 2458204.687002 2458465.019988 56
 23 367 15 3 ZTF_g 711523905915 0 2.7774 673.61 4.87491 26.3208 1.2034e-05 0.0333405 -0.0962467 1.92401e-05 577 30. 0.059067 0.049805 20.4005 26.3208 1 2458466.0239005 367120159 13.2944716998903 50.1701925249518 0.294767852444908 3.13860054930769 338.206723245844 80.8941329072845 4.20901433452335 1.04353648572217 0.201734294401603 14.1460000991821 0.0430000014603138 4.99200010299683 0.158000007271767 2458204.687002 2458465.019988 56
 24 367 15 3 ZTF_r 712469385915 48 2.5856 14.973 11.2045 22.1408 0.00254667 0.0449491 0.115343 0.00533817 9 30. 0.061902 0.067706 15.4916 22.1408 3 2458466.9693866 367120259 309.11667310945 65.7744444557156 5.22781298454379 0.917205242941966 431.346738117715 106.893057981732 4.06248910280634 1.10036412916097 0.273081158351051 13.7030004501343 0.0529999993741512 4.58799982070923 0.349000006914139 2458165.895058 2458450.042049 56
 25 367 15 3 ZTF_g 713460095915 0 2.0363 45.5216 5.4642 23.361 0.000218687 0.0580117 -0.0731775 0.000616089 141 30. 0.058332 0.063144 17.65 23.361 3 2458467.9600926 367120159 -234.674741229777 27.7365056896108 -9.41172874722221 1.12834984280155 -371.761006652751 52.5334828109269 -7.12431040920719 1.04377939908229 0.201734294401603 14.1460000991821 0.0430000014603138 4.99200010299683 0.158000007271767 2458204.687002 2458465.019988 56
 26 367 15 3 ZTF_r 713542815915 0 2.1981 569.934 6.58503 26.1453 5.7877e-06 0.0229367 0.086494 9.05795e-06 577 30. 0.054872 0.049611 20.1647 26.1453 3 2458468.0428125 367120259 1560.33064587509 91.2199984796262 19.0274845871965 4.67453214870697 1026.82298443089 162.588273262633 6.358015098908 1.0383856604318 0.273081158351051 13.7030004501343 0.0529999993741512 4.58799982070923 0.349000006914139 2458165.895058 2458450.042049 56
 27 367 15 3 ZTF_g 714442985915 0 2.2741 648.377 4.96502 26.2462 8.9509e-06 0.0287476 -0.0509036 1.42886e-05 578 30. 0.053696 0.057407 20.5072 26.2462 3 2458468.9429861 367120159 -464.392016428852 40.6315269892737 -12.7138300580839 4.5380485301479 -422.686917781385 69.3641875117141 -6.13477579363317 1.05381270195075 0.201734294401603 14.1460000991821 0.0430000014603138 4.99200010299683 0.158000007271767 2458204.687002 2458465.019988 56
 28 367 15 3 ZTF_g 714458265915 0 2.8441 654.112 4.96355 26.3126 1.49955e-05 0.0371367 -0.119951 2.3772e-05 577 30. 0.064127 0.056532 20.3956 26.3126 1 2458468.9582639 367120159 -209.761725110738 44.9674571878255 -5.18898860879135 6.10419369596626 541.634410328527 73.9878567989937 7.36988977429595 1.0397717046969 0.201734294401603 14.1460000991821 0.0430000014603138 4.99200010299683 0.158000007271767 2458204.687002 2458465.019988 56
 29 367 15 3 ZTF_r 714502045915 0 2.064 613.09 6.42525 26.2089 7.5761e-06 0.0264136 0.0930804 1.18476e-05 579 30. 0.077049 0.063373 20.2858 26.2089 3 2458469.0020486 367120259 349.160878929531 58.8624219256606 6.59845488589989 11.8919652092745 -756.969873322571 104.944444016799 -7.26163367781149 1.0412382831668 0.273081158351051 13.7030004501343 0.0529999993741512 4.58799982070923 0.349000006914139 2458165.895058 2458450.042049 56
 30 367 15 3 ZTF_r 714502965915 0 2.1016 614.924 6.4343 26.2117 7.1314e-06 0.0255466 0.0970421 1.11351e-05 579 30. 0.068103 0.063692 20.2747 26.2117 1 2458469.002963 367120259 876.398623140182 62.1566987166362 15.6844230428447 2.51005002271214 -290.697994754543 110.453305973891 -2.64958898146223 1.04047407696782 0.273081158351051 13.7030004501343 0.0529999993741512 4.58799982070923 0.349000006914139 2458165.895058 2458450.042049 56
 31 367 15 3 ZTF_g 715502145915 0 2.2139 667.571 4.3232 26.2899 7.8873e-06 0.026993 -0.054496 1.23981e-05 580 30. 0.050388 0.058728 20.6526 26.2899 3 2458470.0021412 367120159 582.288111458808 38.1756243404833 16.9670592295928 3.29179915719926 693.584885669043 61.6587091213823 11.3245351667154 1.05185196752164 0.201734294401603 14.1460000991821 0.0430000014603138 4.99200010299683 0.158000007271767 2458204.687002 2458465.019988 56
 32 367 15 3 ZTF_r 718455475915 0 1.8775 614.381 10.3311 26.2064 7.1424e-06 0.0255588 0.104078 1.11964e-05 578 30. 0.048612 0.046438 19.9045 26.2064 3 2458472.9554745 367120259 577.324470499478 73.2167508546648 8.77130705981261 2.81377101354556 -53.0092499494115 138.142056005462 -0.386314434871253 1.03959788390244 0.273081158351051 13.7030004501343 0.0529999993741512 4.58799982070923 0.349000006914139 2458165.895058 2458450.042049 56
 33 367 15 3 ZTF_r 718456845915 0 2.1001 613.095 10.3348 26.2227 7.1969e-06 0.0256285 0.0949029 1.12313e-05 578 30. 0.049256 0.043909 19.7965 26.2227 1 2458472.9568403 367120259 380.036355086437 73.6078465041153 5.74322503156455 3.13000948588541 486.52573615253 134.239368737078 3.64872480842086 1.0384380936291 0.273081158351051 13.7030004501343 0.0529999993741512 4.58799982070923 0.349000006914139 2458165.895058 2458450.042049 56
 34 367 15 3 ZTF_g 718480415915 0 2.4263 680.564 10.2178 26.2839 1.31107e-05 0.0326996 -0.0255376 2.42258e-05 500 30. 0.047321 0.053729 19.8147 26.2839 3 2458472.9804167 367120159 -1488.26598554463 56.8206741287959 -29.1359360464205 4.44118176548669 -866.373718600965 94.7155131140452 -9.20872164195812 1.06640068812134 0.201734294401603 14.1460000991821 0.0430000014603138 4.99200010299683 0.158000007271767 2458204.687002 2458465.019988 56
 35 367 15 3 ZTF_g 718499665915 0 2.5097 682.685 8.45839 26.3022 1.33614e-05 0.0337552 -0.0512928 2.3518e-05 531 30. 0.053051 0.050534 19.98 26.3022 1 2458472.9996644 367120159 -222.044531766347 53.482577851043 -4.61830436680824 3.12071683899117 73.051883924547 86.812539815392 0.847157481191131 1.06299023045552 0.201734294401603 14.1460000991821 0.0430000014603138 4.99200010299683 0.158000007271767 2458204.687002 2458465.019988 56
 36 367 15 3 ZTF_r 720500395915 0 2.2594 610.785 13.2096 26.2193 9.6351e-06 0.0296151 0.0923152 1.52676e-05 578 30. 0.053221 0.051569 19.4638 26.2193 3 2458475.0003935 367120259 1731.4605692005 88.0935647172856 21.8636780056511 1.79519305468692 1792.65893884156 152.300252822108 11.849833250396 1.04367269317899 0.273081158351051 13.7030004501343 0.0529999993741512 4.58799982070923 0.349000006914139 2458165.895058 2458450.042049 56
 37 367 15 3 ZTF_g 721521805915 0 2.2299 677.64 16.2592 26.3088 2.11363e-05 0.0378828 -0.0448079 4.52753e-05 432 30. 0.046071 0.052427 19.3732 26.3088 1 2458476.0218056 367120159 464.618647812552 95.4697328123452 5.41359460303818 2.508237758892 665.308056183144 167.671756932272 3.99464379973382 1.04298469705223 0.201734294401603 14.1460000991821 0.0430000014603138 4.99200010299683 0.158000007271767 2458204.687002 2458465.019988 56
 38 367 15 3 ZTF_g 721522715915 0 2.1497 684.148 16.2189 26.2934 1.87489e-05 0.0362412 -0.0134462 3.89197e-05 438 30. 0.048823 0.054184 19.4294 26.2934 3 2458476.0227199 367120159 -1228.38304966203 97.1848088158254 -14.0601589844414 2.12662337826777 -1459.23800621284 172.33188700585 -8.52463280978254 1.05006155204086 0.201734294401603 14.1460000991821 0.0430000014603138 4.99200010299683 0.158000007271767 2458204.687002 2458465.019988 56
 39 367 15 3 ZTF_r 722496605915 0 1.8005 616.101 12.3468 26.2127 6.7341e-06 0.0247513 0.100341 1.05389e-05 577 30. 0.048223 0.047446 19.7502 26.2127 1 2458476.9966088 367120259 221.8714805397 73.5971876049745 3.35347492782878 2.21572478770913 -227.956880160992 144.963394540856 -1.58310436639007 1.03360193771943 0.273081158351051 13.7030004501343 0.0529999993741512 4.58799982070923 0.349000006914139 2458165.895058 2458450.042049 56
 40 367 15 3 ZTF_r 726457085915 0 3.1182 598.565 10.671 26.1849 1.28918e-05 0.0340848 0.10435 2.01261e-05 577 30. 0.064089 0.066065 19.3936 26.1849 1 2458480.9570833 367120259 1237.83933020664 162.733194991291 8.46141366369649 2.64030094381126 1129.81213743912 236.101346462413 4.81751376784073 1.07859563579385 0.273081158351051 13.7030004501343 0.0529999993741512 4.58799982070923 0.349000006914139 2458165.895058 2458450.042049 56
 41 367 15 3 ZTF_g 726500545915 0 3.4399 650.854 10.0452 26.2741 2.30918e-05 0.0382965 -0.0389839 4.99284e-05 415 30. 0.067692 0.071355 19.4575 26.2741 1 2458481.000544 367120159 365.192377268241 90.1029130915933 4.50855812130899 2.03435263563571 1217.94587555492 123.986041846291 9.88941007263765 1.0965658314898 0.201734294401603 14.1460000991821 0.0430000014603138 4.99200010299683 0.158000007271767 2458204.687002 2458465.019988 56
 42 367 15 3 ZTF_r 727523865915 0 2.5572 602.542 8.47177 26.1935 7.2795e-06 0.025784 0.0951147 1.14588e-05 582 30. 0.060989 0.050158 19.8018 26.1935 1 2458482.0238657 367120259 429.274233655097 84.402801279615 5.65760681107985 2.95166318655883 -222.315035906543 137.365972486321 -1.62931427931715 1.05169934642504 0.273081158351051 13.7030004501343 0.0529999993741512 4.58799982070923 0.349000006914139 2458165.895058 2458450.042049 56
 43 367 15 3 ZTF_r 733435465915 0 2.3612 614.603 6.50701 26.2172 5.1747e-06 0.0217631 0.0858344 8.14997e-06 580 30. 0.054033 0.0456 20.1686 26.2172 1 2458487.935463 367120259 -673.997542467936 68.7967572633566 -10.8979584024698 3.11219478497258 -416.156627241968 120.781728068045 -3.46873217308122 1.04996964437127 0.273081158351051 13.7030004501343 0.0529999993741512 4.58799982070923 0.349000006914139 2458165.895058 2458450.042049 56
 44 367 15 3 ZTF_g 733461275915 0 2.1096 676.566 4.76706 26.2932 8.3964e-06 0.0277453 -0.0573202 1.32874e-05 581 30. 0.052169 0.051413 20.6046 26.2932 1 2458487.9612731 367120159 -435.297566678472 35.806137695893 -13.5233274202933 5.72046139480571 -12.6169249576759 62.9839056374948 -0.201668990587621 1.05043895326322 0.201734294401603 14.1460000991821 0.0430000014603138 4.99200010299683 0.158000007271767 2458204.687002 2458465.019988 56
 45 367 15 3 ZTF_g 737458795915 0 2.6514 407.609 5.67445 25.7561 2.03412e-05 0.0400895 -0.0586285 3.82852e-05 497 30. 0.06115 0.053844 19.7845 25.7561 1 2458491.9587963 367120159 1035.63573641412 44.81737725123 25.7048687994468 2.41799862898573 1822.18233388718 69.7260661887384 26.3094555166701 1.05658484774924 0.201734294401603 14.1460000991821 0.0430000014603138 4.99200010299683 0.158000007271767 2458204.687002 2458465.019988 56
 46 367 15 3 ZTF_r 740458225915 0 2.2987 608.328 5.2623 26.198 4.9674e-06 0.0212578 0.0994048 7.7749e-06 579 30. 0.055319 0.046974 20.3936 26.198 1 2458494.9582292 367120259 -165.249437653939 56.4918275083947 -3.25393720030997 3.31680533131005 -312.197223459451 96.4264408736369 -3.25947828079196 1.05583139353769 0.273081158351051 13.7030004501343 0.0529999993741512 4.58799982070923 0.349000006914139 2458165.895058 2458450.042049 56
 47 367 15 3 ZTF_g 740478135915 0 2.1157 660.898 4.11353 26.2735 6.8394e-06 0.0250867 -0.0685758 1.08354e-05 579 30. 0.054833 0.050563 20.6912 26.2735 1 2458494.9781366 367120159 -855.053702267841 34.4090098910766 -27.6424171598365 4.36523404595402 -1051.34541052756 60.2754367457573 -17.5598276760893 1.04603723384248 0.201734294401603 14.1460000991821 0.0430000014603138 4.99200010299683 0.158000007271767 2458204.687002 2458465.019988 56
 48 367 15 3 ZTF_r 748427315915 0 2.4746 519.853 14.3235 26.0362 1.45243e-05 0.0362579 0.0893905 2.25254e-05 574 30. 0.058554 0.054678 19.132 26.0362 2 2458502.9273148 367120259 -1020.78301597626 123.754219702476 -9.17546790539399 1.30080666101626 -1436.66067653014 206.698365648135 -6.99732997070148 1.04957826507869 0.273081158351051 13.7030004501343 0.0529999993741512 4.58799982070923 0.349000006914139 2458165.895058 2458450.042049 56
 49 367 15 3 ZTF_r 749308285915 0 4.0816 380.133 25.1293 25.7318 9.49143e-05 0.0517009 0.0711888 0.000191607 205 30. 0.090336 0.0821 17.7689 25.7318 2 2458503.808287 367120259 -1282.76454103098 203.784308028081 -7.00214352583645 1.44661387548979 -394.259126437226 269.968602065897 -1.47022461612244 1.07795666962868 0.273081158351051 13.7030004501343 0.0529999993741512 4.58799982070923 0.349000006914139 2458165.895058 2458450.042049 56
 50 367 15 3 ZTF_r 749324695915 49 4.1572 305.532 29.7889 25.454 0.000175484 0.048761 0.0665252 0.000381193 117 30. 0.094938 0.082962 17.2986 25.454 2 2458503.8246991 367120259 -1798.72655576081 204.538524718251 -9.78238674076526 1.20847059997847 -1317.29344372882 264.920713493023 -5.00589581455141 1.10033242825512 0.273081158351051 13.7030004501343 0.0529999993741512 4.58799982070923 0.349000006914139 2458165.895058 2458450.042049 56
 51 367 15 3 ZTF_r 749341285915 0 3.6849 428.71 22.5002 25.8404 4.41223e-05 0.0435923 0.0677475 8.04616e-05 295 30. 0.071001 0.061982 18.0812 25.8404 2 2458503.8412847 367120259 -3493.52945949679 184.060004847731 -21.1134780848308 2.29188690813227 -1434.48546235161 264.538872685761 -5.45910999699845 1.05290413032386 0.273081158351051 13.7030004501343 0.0529999993741512 4.58799982070923 0.349000006914139 2458165.895058 2458450.042049 56
 52 367 15 3 ZTF_r 749358185915 0 4.0522 501.335 19.2995 26.0015 3.70817e-05 0.0428631 0.0913824 6.71704e-05 336 30. 0.075214 0.065437 18.3393 26.0015 2 2458503.8581829 367120259 -2087.53524299114 163.524049485255 -14.2006094650209 1.60484128860199 -1181.57509979342 218.082777708593 -5.45450259103828 1.07777772976888 0.273081158351051 13.7030004501343 0.0529999993741512 4.58799982070923 0.349000006914139 2458165.895058 2458450.042049 56
 53 367 15 3 ZTF_r 749375925915 0 3.8417 539.427 17.4264 26.0996 2.91974e-05 0.0426028 0.0649772 5.10052e-05 403 30. 0.073334 0.055009 18.5963 26.0996 2 2458503.8759259 367120259 -4528.49899760993 162.854090442628 -30.9321712379902 3.21831850536743 -1946.52613433153 232.126422852168 -8.44210700255983 1.04903666928025 0.273081158351051 13.7030004501343 0.0529999993741512 4.58799982070923 0.349000006914139 2458165.895058 2458450.042049 56
 54 367 15 3 ZTF_r 749410825915 0 2.6753 572.922 15.7356 26.1493 1.60631e-05 0.0382895 0.0890855 2.52285e-05 576 30. 0.058678 0.054108 19.1144 26.1493 2 2458503.9108218 367120259 37.6307167303149 105.967772149139 0.39502400456678 1.36129056345117 -18.1459933929635 174.987502664541 -0.104397213654247 1.05067773028435 0.273081158351051 13.7030004501343 0.0529999993741512 4.58799982070923 0.349000006914139 2458165.895058 2458450.042049 56
 55 367 15 3 ZTF_r 749427375915 0 2.1317 608.332 13.8464 26.2031 7.8703e-06 0.0267525 0.093097 1.23957e-05 576 30. 0.052011 0.043828 19.4912 26.2031 2 2458503.9273727 367120259 131.781804953186 80.1085190966611 1.82991766383984 2.34062598964399 -1112.83949132353 146.437419796745 -7.65060276860752 1.0427194796656 0.273081158351051 13.7030004501343 0.0529999993741512 4.58799982070923 0.349000006914139 2458165.895058 2458450.042049 56
 56 367 15 3 ZTF_r 749443805915 0 2.201 601.186 13.9841 26.1944 1.00223e-05 0.0303518 0.106027 1.56803e-05 579 30. 0.056445 0.044237 19.4437 26.1944 2 2458503.9438079 367120259 -443.064377095477 85.2539888815387 -5.7810526776061 1.87209229319704 -316.613066717779 150.861395093374 -2.11283657917351 1.04804987272103 0.273081158351051 13.7030004501343 0.0529999993741512 4.58799982070923 0.349000006914139 2458165.895058 2458450.042049 56
 57 367 15 3 ZTF_g 749537565915 0 2.8138 430.634 21.5455 25.8645 9.46369e-05 0.0533867 -0.0711068 0.000251264 233 30. 0.063081 0.061318 18.4257 25.8645 1 2458504.0375694 367120159 -164.950873616009 111.76378182149 -1.64175494191589 1.87740304113859 -1027.64248260564 183.179519344411 -5.64781323563873 1.03971190030001 0.201734294401603 14.1460000991821 0.0430000014603138 4.99200010299683 0.158000007271767 2458204.687002 2458465.019988 56
 58 367 15 3 ZTF_r 751271855915 8 5.5727 507.311 23.6188 26.0599 0.00018531 0.0609099 0.116066 0.000379596 152 30. 0.172068 0.106945 17.8847 26.0599 2 2458505.7718519 367120259 5108.28966602968 308.383178762649 18.426363585655 1.28623245297693 5133.53904056357 349.351552457828 14.7934471308335 1.4099017501364 0.273081158351051 13.7030004501343 0.0529999993741512 4.58799982070923 0.349000006914139 2458165.895058 2458450.042049 56
 59 367 15 3 ZTF_r 751276735915 0 3.9364 538.628 23.1222 26.0878 4.625e-05 0.0457665 0.0914169 8.36877e-05 308 30. 0.111963 0.076976 18.2712 26.0878 2 2458505.7767361 367120259 2300.19721391889 381.384768792488 6.70898049662186 1.12226405591787 2276.15298769214 490.942746795714 4.66751576223206 1.11319316672932 0.273081158351051 13.7030004501343 0.0529999993741512 4.58799982070923 0.349000006914139 2458165.895058 2458450.042049 56
 60 367 15 3 ZTF_r 751289315915 0 4.6072 548.376 22.2442 26.1199 5.41944e-05 0.0462093 0.0811592 0.000100982 273 30. 0.120947 0.075733 18.1953 26.1199 2 2458505.7893171 367120259 1089.063958375 202.141855242765 5.99310572876644 1.3096157547498 1715.28658101309 243.194389648993 7.10065366769953 1.164690923006 0.273081158351051 13.7030004501343 0.0529999993741512 4.58799982070923 0.349000006914139 2458165.895058 2458450.042049 56
 61 367 15 3 ZTF_r 751301965915 0 4.5527 555.883 21.2114 26.1492 5.00842e-05 0.0453172 0.0743253 9.19305e-05 288 30. 0.105624 0.071988 18.2833 26.1492 2 2458505.8019676 367120259 2942.54496794897 308.004424945722 10.6272513820479 1.50599627338175 3114.82083333041 371.042058451178 8.45133121550542 1.17316468879755 0.273081158351051 13.7030004501343 0.0529999993741512 4.58799982070923 0.349000006914139 2458165.895058 2458450.042049 56
 62 367 15 3 ZTF_r 751314765915 8 4.7664 565.049 20.2712 26.1518 4.53812e-05 0.0417933 0.104037 8.56313e-05 277 30. 0.092 0.07223 18.2926 26.1518 2 2458505.8147685 367120259 2242.94795428781 203.023865357794 12.2892931863499 1.30478396458375 2458.19673063284 240.105823822658 10.3069254533102 1.20261398033716 0.273081158351051 13.7030004501343 0.0529999993741512 4.58799982070923 0.349000006914139 2458165.895058 2458450.042049 56
 63 367 15 3 ZTF_r 751328355915 0 4.6881 587.676 19.5797 26.1857 4.71886e-05 0.046133 0.0654534 8.68222e-05 304 30. 0.0949 0.069728 18.3795 26.1857 2 2458505.8283565 367120259 -2322.11594687582 195.527959657099 -13.2108217755706 1.37955228951141 -2328.97808621175 235.122990231516 -9.97207412729496 1.16725701910512 0.273081158351051 13.7030004501343 0.0529999993741512 4.58799982070923 0.349000006914139 2458165.895058 2458450.042049 56
 64 367 15 3 ZTF_r 751342335915 0 4.0149 591.439 19.022 26.1878 3.22114e-05 0.0436086 0.0870861 5.6264e-05 385 30. 0.082228 0.06418 18.5599 26.1878 2 2458505.842338 367120259 371.497576685491 177.85417432607 2.32352165012678 1.75966623910281 385.172841319353 229.979118050443 1.6860965719569 1.10436994730145 0.273081158351051 13.7030004501343 0.0529999993741512 4.58799982070923 0.349000006914139 2458165.895058 2458450.042049 56
 65 367 15 3 ZTF_r 751356185915 0 3.8503 582.121 18.6036 26.1956 3.12792e-05 0.0445216 0.0795442 5.51262e-05 400 30. 0.079668 0.066308 18.6214 26.1956 2 2458505.8561806 367120259 2593.91833934419 176.524065706054 16.3458375785457 1.59248392417599 3536.17751321763 230.613142523866 15.4370814831352 1.10411228921776 0.273081158351051 13.7030004501343 0.0529999993741512 4.58799982070923 0.349000006914139 2458165.895058 2458450.042049 56
 66 367 15 3 ZTF_r 751369255915 0 3.9761 592.579 18.1631 26.1894 2.89977e-05 0.0419938 0.112117 5.03645e-05 394 30. 0.089046 0.065338 18.6181 26.1894 2 2458505.8692593 367120259 476.697122440751 185.830470481075 2.85351661083362 1.37535926078428 509.23523873143 238.044106484909 2.15365536636627 1.12627829388915 0.273081158351051 13.7030004501343 0.0529999993741512 4.58799982070923 0.349000006914139 2458165.895058 2458450.042049 56
 67 367 15 3 ZTF_r 751382265915 8 5.1276 588.652 18.0633 26.1925 4.61304e-05 0.0432711 0.096194 8.54501e-05 281 30. 0.099939 0.080872 18.3839 26.1925 2 2458505.8822685 367120259 3971.58485095496 220.224530073867 20.0610174009181 1.22832661744847 4117.76105356525 252.829124876433 16.3964274812171 1.28902636009595 0.273081158351051 13.7030004501343 0.0529999993741512 4.58799982070923 0.349000006914139 2458165.895058 2458450.042049 56
 68 367 15 3 ZTF_r 752269135915 0 4.4015 542.494 22.2929 26.1121 7.57094e-05 0.0524575 0.0778946 0.000144413 272 30. 0.103988 0.084141 18.2398 26.1121 2 2458506.7691319 367120259 5022.42461454302 306.519071799255 18.2268125063099 1.93171100364512 5434.10486486899 372.27478721359 14.6953381257212 1.18358882506265 0.273081158351051 13.7030004501343 0.0529999993741512 4.58799982070923 0.349000006914139 2458165.895058 2458450.042049 56
 69 367 15 3 ZTF_r 752282975915 0 3.9736 562.871 22.4238 26.1283 4.71135e-05 0.0465069 0.0932345 8.60701e-05 313 30. 0.091968 0.078099 18.3444 26.1283 2 2458506.7829745 367120259 568.197537567303 217.955636864737 2.89992017191347 1.84949610038102 631.474194378051 275.780815123647 2.30519011673806 1.15238011912406 0.273081158351051 13.7030004501343 0.0529999993741512 4.58799982070923 0.349000006914139 2458165.895058 2458450.042049 56
 70 367 15 3 ZTF_r 752298955915 0 3.8153 579.598 20.3915 26.1424 4.95288e-05 0.0514694 0.109754 8.75433e-05 361 30. 0.087151 0.069555 18.4929 26.1424 2 2458506.7989583 367120259 3237.14770647229 191.865239876327 18.7681305725707 1.86544667065741 1802.31549774134 246.651392247943 7.35635092013074 1.1285606868439 0.273081158351051 13.7030004501343 0.0529999993741512 4.58799982070923 0.349000006914139 2458165.895058 2458450.042049 56
 71 367 15 3 ZTF_r 752315135915 0 3.8907 583.396 19.3364 26.1719 3.61321e-05 0.0442745 0.0982633 6.29754e-05 365 30. 0.082739 0.067989 18.5734 26.1719 2 2458506.8151389 367120259 3743.10109262713 487.132510016865 8.54750263583463 1.38000153121886 3165.60516542494 622.578473893105 5.11891405177955 1.14734521850055 0.273081158351051 13.7030004501343 0.0529999993741512 4.58799982070923 0.349000006914139 2458165.895058 2458450.042049 56
 72 367 15 3 ZTF_r 752332295915 0 3.716 594.416 18.8017 26.1809 3.1029e-05 0.0433832 0.109526 5.46985e-05 396 30. 0.080042 0.069333 18.6364 26.1809 2 2458506.8322917 367120259 1531.01407219856 221.658729314309 7.68332394496376 1.69855806850853 1151.89119473205 287.337433701353 4.03584466271741 1.13443847580082 0.273081158351051 13.7030004501343 0.0529999993741512 4.58799982070923 0.349000006914139 2458165.895058 2458450.042049 56
 73 367 15 3 ZTF_r 752349895915 0 3.0804 600.806 18.2688 26.2041 2.31432e-05 0.0425922 0.0881014 3.85628e-05 492 30. 0.070463 0.062152 18.859 26.2041 2 2458506.8498958 367120259 -500.317154027386 189.895889646743 -2.93078952185212 1.80512032531942 200.63832072653 277.780372183423 0.727155881362826 1.0761638681812 0.273081158351051 13.7030004501343 0.0529999993741512 4.58799982070923 0.349000006914139 2458165.895058 2458450.042049 56
 74 367 15 3 ZTF_r 752367535915 0 2.7834 601.197 18.0919 26.2157 1.73123e-05 0.0383403 0.0908537 2.74322e-05 536 30. 0.065593 0.054842 18.9662 26.2157 2 2458506.8675347 367120259 741.995395077507 186.629376102409 4.422583149336 1.53140470489119 1227.07316739532 290.830718812755 4.24761724215458 1.06115296236108 0.273081158351051 13.7030004501343 0.0529999993741512 4.58799982070923 0.349000006914139 2458165.895058 2458450.042049 56
 75 367 15 3 ZTF_r 752384005915 0 2.6195 607.475 17.7383 26.2246 1.52817e-05 0.0370121 0.0969159 2.3857e-05 564 30. 0.060464 0.050659 19.0618 26.2246 2 2458506.8840046 367120259 1095.05824262219 146.606422749718 8.30881372559957 2.27150262803826 894.852663464034 237.772653997083 3.78882740505887 1.05130853746381 0.273081158351051 13.7030004501343 0.0529999993741512 4.58799982070923 0.349000006914139 2458165.895058 2458450.042049 56
 76 367 15 3 ZTF_r 752400235915 0 3.2964 605.433 17.6386 26.2249 2.26582e-05 0.0410253 0.0905916 3.75196e-05 470 30. 0.065571 0.059471 18.8632 26.2249 2 2458506.9002315 367120259 264.377460119939 196.098955446409 1.49969846430517 1.27854926491548 735.985168064151 272.529424919123 2.71875989440696 1.10729614399764 0.273081158351051 13.7030004501343 0.0529999993741512 4.58799982070923 0.349000006914139 2458165.895058 2458450.042049 56
 77 367 15 3 ZTF_r 752416375915 0 3.4129 583.742 18.6867 26.2179 2.90268e-05 0.0450946 0.0966912 4.82345e-05 447 30. 0.074098 0.063421 18.771 26.2179 2 2458506.9163773 367120259 4710.36780353427 350.764840875857 14.9380382040778 1.20559371474395 6004.6361189096 478.351135521272 12.6373227525825 1.11333882669111 0.273081158351051 13.7030004501343 0.0529999993741512 4.58799982070923 0.349000006914139 2458165.895058 2458450.042049 56
 78 367 15 3 ZTF_r 752437385915 0 3.6858 609.01 17.894 26.2127 3.15297e-05 0.0461117 0.103826 5.34888e-05 437 30. 0.072499 0.0776 18.7779 26.2127 1 2458506.9373843 367120259 1886.89550309514 342.063309636997 6.13615267878787 1.80635058976035 1095.69714918926 452.53058256084 2.43757389011733 1.15053741312196 0.273081158351051 13.7030004501343 0.0529999993741512 4.58799982070923 0.349000006914139 2458165.895058 2458450.042049 56
 79 367 15 3 ZTF_g 755516705915 0 4.496 624.255 11.0951 26.2233 5.49194e-05 0.0473372 -0.039792 0.000134702 296 30. 0.091367 0.079194 19.0694 26.2233 1 2458510.0167014 367120159 -1585.30964116234 117.356348492762 -15.02665494265 1.40643080318186 -1573.68805699937 142.080618606379 -11.1506196421792 1.20223537162391 0.201734294401603 14.1460000991821 0.0430000014603138 4.99200010299683 0.158000007271767 2458204.687002 2458465.019988 56
 80 367 15 3 ZTF_r 757255345915 0 2.4606 459.289 7.72633 25.906 1.17148e-05 0.0328105 0.0937551 1.83663e-05 579 30. 0.084515 0.05403 19.6755 25.906 2 2458511.7553472 367120259 921.703921806797 59.5443639058158 17.2189068377623 1.93475581074902 1139.91519668176 99.0730889204441 11.5832927349005 1.04464015160362 0.273081158351051 13.7030004501343 0.0529999993741512 4.58799982070923 0.349000006914139 2458165.895058 2458450.042049 56
 81 367 15 3 ZTF_r 757255815915 0 2.5618 465.521 7.70251 25.8979 1.15507e-05 0.0323083 0.1075 1.80645e-05 575 30. 0.067746 0.057984 19.6291 25.8979 2 2458511.7558102 367120259 2754.26555458977 81.0317044711862 37.8099094811541 2.47054859826273 2958.46346321962 125.870899211394 23.6622515888861 1.06246696735446 0.273081158351051 13.7030004501343 0.0529999993741512 4.58799982070923 0.349000006914139 2458165.895058 2458450.042049 56
 82 367 15 3 ZTF_r 757256265915 0 2.1965 473.171 7.61769 25.9147 9.0966e-06 0.0287051 0.11252 1.4221e-05 576 30. 0.07061 0.057481 19.8163 25.9147 2 2458511.7562616 367120259 1138.53944245916 67.6640053430083 18.7173852583114 4.72612844517185 1491.68423516125 115.230832635046 13.0323697223051 1.04993529836014 0.273081158351051 13.7030004501343 0.0529999993741512 4.58799982070923 0.349000006914139 2458165.895058 2458450.042049 56
 83 367 15 3 ZTF_r 757256725915 0 2.2886 478.66 7.5948 25.9154 9.1552e-06 0.0288962 0.116772 1.42793e-05 579 30. 0.077272 0.058535 19.8183 25.9154 2 2458511.7567245 367120259 1130.82207490203 65.8397739995551 19.1056029233373 8.03719513899929 1453.51426188431 108.768571651663 13.4533693128951 1.05772918047951 0.273081158351051 13.7030004501343 0.0529999993741512 4.58799982070923 0.349000006914139 2458165.895058 2458450.042049 56
 84 367 15 3 ZTF_r 757257175915 0 2.3033 480.543 7.54212 25.9238 9.5459e-06 0.0295113 0.114162 1.49099e-05 577 30. 0.076358 0.059071 19.8348 25.9238 2 2458511.7571759 367120259 -752.497016682005 60.4353680259815 -13.8505944271805 5.60485517120757 430.046418313059 104.539283382252 4.14143651721819 1.05987139111063 0.273081158351051 13.7030004501343 0.0529999993741512 4.58799982070923 0.349000006914139 2458165.895058 2458450.042049 56
 85 367 15 3 ZTF_r 757257635915 0 2.2095 482.122 7.55352 25.9377 1.02879e-05 0.0305461 0.11141 1.61219e-05 577 30. 0.061947 0.052511 19.8901 25.9377 2 2458511.7576389 367120259 1750.61875569509 62.8052360713296 31.0063414868303 4.88696125112458 2684.79381472596 106.512423458748 25.3761577078784 1.05029273712031 0.273081158351051 13.7030004501343 0.0529999993741512 4.58799982070923 0.349000006914139 2458165.895058 2458450.042049 56
 86 367 15 3 ZTF_r 757258095915 0 2.2343 490.721 7.47119 25.9534 9.4014e-06 0.0291886 0.112504 1.47157e-05 576 30. 0.069362 0.053561 19.8612 25.9534 2 2458511.7580903 367120259 1668.15996749646 75.4948769890117 24.5796114899557 3.06839711314283 1284.72563629553 126.111260407935 10.2558513267477 1.05395832785943 0.273081158351051 13.7030004501343 0.0529999993741512 4.58799982070923 0.349000006914139 2458165.895058 2458450.042049 56
 87 367 15 3 ZTF_r 757258555915 0 2.2348 492.392 7.44708 25.9632 1.04349e-05 0.0309405 0.103487 1.63439e-05 579 30. 0.077333 0.05675 19.8733 25.9632 2 2458511.7585532 367120259 2079.76982377399 62.9463791335205 36.7535522660906 4.2489277898276 1985.14918829419 103.45361630414 19.318022449958 1.0501433060924 0.273081158351051 13.7030004501343 0.0529999993741512 4.58799982070923 0.349000006914139 2458165.895058 2458450.042049 56
 88 367 15 3 ZTF_r 757259005915 0 2.1525 499.097 7.39188 25.9757 9.0044e-06 0.0284739 0.110233 1.40077e-05 576 30. 0.07415 0.052983 19.9114 25.9757 2 2458511.7590046 367120259 1036.27606172891 59.084603367855 19.5099403942359 14.4202662178714 1719.2412828065 101.402775457938 17.0687682259796 1.04588877400185 0.273081158351051 13.7030004501343 0.0529999993741512 4.58799982070923 0.349000006914139 2458165.895058 2458450.042049 56
 89 367 15 3 ZTF_r 757259465915 0 2.136 506.49 7.36738 25.9789 8.3083e-06 0.0275019 0.111741 1.29328e-05 577 30. 0.069673 0.053465 19.9543 25.9789 2 2458511.7594676 367120259 500.599946478818 76.435755957267 7.28532674914605 3.23342651413835 -389.500882862253 134.243434714201 -2.92099345158328 1.04924214194162 0.273081158351051 13.7030004501343 0.0529999993741512 4.58799982070923 0.349000006914139 2458165.895058 2458450.042049 56
 90 367 15 3 ZTF_r 757259935915 0 2.4308 496.672 7.38147 25.9674 9.1868e-06 0.0289322 0.114647 1.43652e-05 577 30. 0.075106 0.059613 19.8287 25.9674 2 2458511.7599306 367120259 315.067765041331 67.9364213648729 5.15888809290508 2.53298588164399 949.454687212447 112.496143262197 8.49672967836593 1.06114762320212 0.273081158351051 13.7030004501343 0.0529999993741512 4.58799982070923 0.349000006914139 2458165.895058 2458450.042049 56
 91 367 15 3 ZTF_r 757260385915 0 2.3037 498.256 7.40408 25.9859 1.01192e-05 0.030311 0.103867 1.58563e-05 575 30. 0.072067 0.056456 19.8652 25.9859 2 2458511.7603819 367120259 1588.36502127304 73.8214906381729 23.9343867935132 7.92214343214157 1429.65636194547 121.21365843379 11.8739521469397 1.05278762865843 0.273081158351051 13.7030004501343 0.0529999993741512 4.58799982070923 0.349000006914139 2458165.895058 2458450.042049 56
 92 367 15 3 ZTF_r 757260845915 0 1.9665 503.445 7.37516 25.9775 7.9433e-06 0.0268865 0.106877 1.24482e-05 576 30. 0.061576 0.054302 19.9971 25.9775 2 2458511.7608449 367120259 2448.34524098867 58.2148143729298 46.7836327479072 4.86405567432933 1258.27541356369 97.774590082929 12.9558198075225 1.04279546325036 0.273081158351051 13.7030004501343 0.0529999993741512 4.58799982070923 0.349000006914139 2458165.895058 2458450.042049 56
 93 367 15 3 ZTF_r 757261295915 0 1.8771 501.592 7.32961 25.9817 6.8955e-06 0.0250305 0.107287 1.07748e-05 578 30. 0.058109 0.052163 20.0479 25.9817 2 2458511.7612963 367120259 615.010019139812 52.7715514827397 12.9639434942533 3.60637027595116 531.394955842469 96.9475358553858 5.51817977345845 1.03907828169586 0.273081158351051 13.7030004501343 0.0529999993741512 4.58799982070923 0.349000006914139 2458165.895058 2458450.042049 56
 94 367 15 3 ZTF_r 757261755915 0 1.9592 503.326 7.35846 25.9712 8.2087e-06 0.0273996 0.11101 1.2836e-05 579 30. 0.069016 0.052224 19.9994 25.9712 2 2458511.7617593 367120259 787.621965576672 53.1458520257848 16.4855426231191 3.15351011674532 1571.8852266303 96.7377460636099 16.3583712507564 1.04092989259323 0.273081158351051 13.7030004501343 0.0529999993741512 4.58799982070923 0.349000006914139 2458165.895058 2458450.042049 56
 95 367 15 3 ZTF_r 757262225915 0 2.0138 510.207 7.31573 25.9885 5.9057e-06 0.023163 0.11148 9.22599e-06 578 30. 0.069649 0.055355 20.0006 25.9885 2 2458511.7622222 367120259 1705.92408024079 63.2062652772036 30.0230196939103 7.60706389007251 1105.90345989141 110.375715338654 10.0869270011601 1.04338906023108 0.273081158351051 13.7030004501343 0.0529999993741512 4.58799982070923 0.349000006914139 2458165.895058 2458450.042049 56
 96 367 15 3 ZTF_r 757262675915 0 2.023 513.07 7.24253 26.0061 6.9858e-06 0.0253445 0.109321 1.09276e-05 580 30. 0.075465 0.054837 20.0288 26.0061 2 2458511.7626736 367120259 1045.19082614315 54.9099237403439 21.1738362315388 3.66797365235459 1151.60966432469 97.7382278962252 11.8619484579017 1.04363198364559 0.273081158351051 13.7030004501343 0.0529999993741512 4.58799982070923 0.349000006914139 2458165.895058 2458450.042049 56
 97 367 15 3 ZTF_r 757263125915 0 2.0562 516.552 7.17357 26.0125 8.2946e-06 0.0275545 0.107924 1.2951e-05 579 30. 0.063335 0.052326 20.0312 26.0125 2 2458511.763125 367120259 1461.90456678693 65.3116134226362 24.899086353969 10.5016945390418 1260.16053594254 113.081086646158 11.2189211059234 1.0449900777563 0.273081158351051 13.7030004501343 0.0529999993741512 4.58799982070923 0.349000006914139 2458165.895058 2458450.042049 56
 98 367 15 3 ZTF_r 757264795915 0 2.3163 535.438 7.03599 26.0596 8.8547e-06 0.028378 0.105498 1.38588e-05 575 30. 0.066915 0.051322 19.9751 26.0596 2 2458511.7647917 367120259 957.117914829807 83.4798404228543 12.7537716262576 3.075981198114 1655.88641888177 146.804672823243 11.3554894209081 1.04203547276623 0.273081158351051 13.7030004501343 0.0529999993741512 4.58799982070923 0.349000006914139 2458165.895058 2458450.042049 56
 99 367 15 3 ZTF_r 757267955915 0 2.1426 544.054 6.94127 26.0745 6.7432e-06 0.0248634 0.100369 1.05254e-05 577 30. 0.060782 0.04972 20.0647 26.0745 2 2458511.7679514 367120259 1260.30749039971 57.0041476694981 24.5937561168308 3.160738634441 285.072808287821 98.8282646631562 2.90395456230519 1.0373551699233 0.273081158351051 13.7030004501343 0.0529999993741512 4.58799982070923 0.349000006914139 2458165.895058 2458450.042049 56
 100 367 15 3 ZTF_r 757271115915 0 2.1344 549.65 6.86199 26.0971 5.8347e-06 0.0230959 0.0971974 9.10567e-06 579 30. 0.065455 0.052122 20.0885 26.0971 2 2458511.7711111 367120259 -92.7712505172811 56.0051063223718 -1.84264038694328 7.36909851395008 226.803973280328 101.350585714578 2.25288792836916 1.03730029684226 0.273081158351051 13.7030004501343 0.0529999993741512 4.58799982070923 0.349000006914139 2458165.895058 2458450.042049 56
 101 367 15 3 ZTF_r 757274305915 0 2.151 538.708 6.88912 26.0753 6.293e-06 0.0241238 0.0981287 9.8551e-06 580 30. 0.060475 0.051059 20.0607 26.0753 2 2458511.7743056 367120259 241.936256163559 56.1369415209817 4.79409912508577 5.43349645224268 677.950204594097 102.754298742639 6.64221591290587 1.03501748952268 0.273081158351051 13.7030004501343 0.0529999993741512 4.58799982070923 0.349000006914139 2458165.895058 2458450.042049 56
 102 367 15 3 ZTF_r 757277535915 0 2.1705 559.375 6.72776 26.1108 5.8897e-06 0.0232628 0.0912742 9.21414e-06 580 30. 0.061285 0.048634 20.127 26.1108 2 2458511.7775347 367120259 1390.33934812467 57.4169706227593 26.9361387265035 5.90628154242327 402.375845776441 99.3460977619828 4.07752170818952 1.03588978601209 0.273081158351051 13.7030004501343 0.0529999993741512 4.58799982070923 0.349000006914139 2458165.895058 2458450.042049 56
 103 367 15 3 ZTF_r 757280785915 0 2.1479 564.932 6.6572 26.1331 6.3422e-06 0.0240056 0.0905431 9.9392e-06 579 30. 0.062418 0.047324 20.1533 26.1331 2 2458511.780787 367120259 57.6044847509543 51.8676953821643 1.23541862923603 4.21185799561317 912.735312419503 95.5883391074019 9.61291561128964 1.03475682231529 0.273081158351051 13.7030004501343 0.0529999993741512 4.58799982070923 0.349000006914139 2458165.895058 2458450.042049 56
 104 367 15 3 ZTF_r 757284075915 0 2.2115 549.993 6.75132 26.1025 6.095e-06 0.0235135 0.0925342 9.55369e-06 578 30. 0.058499 0.044666 20.0892 26.1025 2 2458511.7840741 367120259 1531.79720110742 61.9661998379591 27.4980064488431 4.30558742820886 1467.62131998868 108.664701949356 13.5969252895652 1.03456743123446 0.273081158351051 13.7030004501343 0.0529999993741512 4.58799982070923 0.349000006914139 2458165.895058 2458450.042049 56
 105 367 15 3 ZTF_r 757287375915 0 2.2992 571.984 6.59204 26.1394 5.652e-06 0.022679 0.086012 8.88176e-06 578 30. 0.058709 0.045322 20.117 26.1394 2 2458511.7873727 367120259 -1082.19700130814 64.9159803406975 -18.5442599804097 4.98864629808125 -1294.74392495418 118.131438571846 -11.0340152929651 1.03552698851016 0.273081158351051 13.7030004501343 0.0529999993741512 4.58799982070923 0.349000006914139 2458165.895058 2458450.042049 56
 106 367 15 3 ZTF_r 757290695915 0 2.3486 569.618 6.56688 26.1405 5.8802e-06 0.0231656 0.0933992 9.2272e-06 580 30. 0.056615 0.045436 20.0903 26.1405 2 2458511.7906944 367120259 114.190317908785 83.5186250789383 1.52090030494735 3.25240432808207 745.377076917198 149.62917189893 5.01504636356812 1.03550659844871 0.273081158351051 13.7030004501343 0.0529999993741512 4.58799982070923 0.349000006914139 2458165.895058 2458450.042049 56
 107 367 15 3 ZTF_r 757294015915 0 2.1384 566.307 6.56464 26.1367 4.7676e-06 0.0208721 0.0892377 7.4454e-06 578 30. 0.053931 0.044236 20.179 26.1367 2 2458511.7940162 367120259 283.56995949544 56.8945874547428 5.54426614185973 3.6228030601077 702.599913671508 106.394474060236 6.64820208720283 1.03221158217628 0.273081158351051 13.7030004501343 0.0529999993741512 4.58799982070923 0.349000006914139 2458165.895058 2458450.042049 56
 108 367 15 3 ZTF_r 757297375915 0 2.2264 566.767 6.49976 26.1369 4.7982e-06 0.0208829 0.0860195 7.53849e-06 576 30. 0.055335 0.046278 20.1569 26.1369 2 2458511.7973727 367120259 1083.02618423724 100.410042678605 11.998214064544 3.36510550684855 617.133782096425 183.90977196061 3.37823383174358 1.03359623118274 0.273081158351051 13.7030004501343 0.0529999993741512 4.58799982070923 0.349000006914139 2458165.895058 2458450.042049 56
 109 367 15 3 ZTF_r 757301045915 0 2.2926 563.922 6.46578 26.1341 6.0239e-06 0.0235028 0.0832 9.41846e-06 579 30. 0.057164 0.042517 20.1426 26.1341 2 2458511.8010417 367120259 361.461511894001 71.629106535801 5.61341728837346 2.9212919014641 471.443115195779 129.15125682598 3.67490277187596 1.03509741764233 0.273081158351051 13.7030004501343 0.0529999993741512 4.58799982070923 0.349000006914139 2458165.895058 2458450.042049 56
 110 367 15 3 ZTF_r 757311825915 0 2.2008 591.473 6.12377 26.1869 5.3779e-06 0.0222514 0.0843635 8.3915e-06 581 30. 0.057708 0.044283 20.2603 26.1869 2 2458511.8118287 367120259 95.1157379469703 51.194838332692 2.06671697657591 4.29453472748201 368.104239142425 94.0718048748692 3.93936783571687 1.03320916494522 0.273081158351051 13.7030004501343 0.0529999993741512 4.58799982070923 0.349000006914139 2458165.895058 2458450.042049 56
 111 367 15 3 ZTF_r 757315425915 0 2.1861 594.96 6.07373 26.1788 5.323e-06 0.0220112 0.0883062 8.31779e-06 577 30. 0.055173 0.04113 20.2687 26.1788 2 2458511.8154282 367120259 -507.385225281017 56.0774930930914 -10.0647739954901 3.42296278035425 -849.380747920691 104.611191564611 -8.17409077688257 1.03337295717693 0.273081158351051 13.7030004501343 0.0529999993741512 4.58799982070923 0.349000006914139 2458165.895058 2458450.042049 56
 112 367 15 3 ZTF_r 757319025915 0 2.1381 595.643 6.01062 26.1916 4.982e-06 0.0213539 0.0872792 7.76478e-06 580 30. 0.055803 0.041855 20.287 26.1916 2 2458511.8190278 367120259 -329.354380798909 71.958735895273 -5.09137071336914 2.94628247600004 248.251852192052 134.44215531014 1.85896932493511 1.03457508317921 0.273081158351051 13.7030004501343 0.0529999993741512 4.58799982070923 0.349000006914139 2458165.895058 2458450.042049 56
 113 367 15 3 ZTF_r 757322615915 0 2.0651 593.202 6.05324 26.1863 4.8761e-06 0.0212264 0.0893775 7.61306e-06 582 30. 0.05055 0.042558 20.3241 26.1863 2 2458511.8226157 367120259 152.079935842605 64.2286366182942 2.63389233477327 3.54638528287661 -411.802438939555 120.797329342085 -3.43199600783222 1.03318450555629 0.273081158351051 13.7030004501343 0.0529999993741512 4.58799982070923 0.349000006914139 2458165.895058 2458450.042049 56
 114 367 15 3 ZTF_r 757326195915 0 1.9861 601.4 5.96701 26.1991 4.5013e-06 0.0204147 0.094087 7.05525e-06 582 30. 0.0505 0.043126 20.3749 26.1991 2 2458511.8261921 367120259 -368.225234897621 45.2756396042656 -9.04698259326167 6.29836421658684 -329.639462857555 85.6254586213959 -3.87571183791303 1.03202147920207 0.273081158351051 13.7030004501343 0.0529999993741512 4.58799982070923 0.349000006914139 2458165.895058 2458450.042049 56
 115 367 15 3 ZTF_r 757329745915 0 2.3534 601.041 5.9725 26.1883 5.0816e-06 0.0216645 0.0925526 7.94499e-06 581 30. 0.052865 0.044615 20.2363 26.1883 2 2458511.8297454 367120259 252.686909313228 77.0579522582746 3.64770812623857 1.92641236482761 -232.682761510518 132.414329052162 -1.76906755464807 1.0478061577531 0.273081158351051 13.7030004501343 0.0529999993741512 4.58799982070923 0.349000006914139 2458165.895058 2458450.042049 56
 116 367 15 3 ZTF_r 757333295915 0 2.5575 602.691 5.93195 26.1895 5.7e-06 0.0228113 0.0927064 8.92717e-06 579 30. 0.059982 0.048251 20.169 26.1895 2 2458511.8332986 367120259 779.065234615865 102.958834650643 8.41714885041426 2.00578432067472 135.005792935469 171.565109482508 0.792206906919456 1.04700233823556 0.273081158351051 13.7030004501343 0.0529999993741512 4.58799982070923 0.349000006914139 2458165.895058 2458450.042049 56
 117 367 15 3 ZTF_r 757336845915 0 2.2572 567.317 6.19486 26.1354 5.8129e-06 0.0231667 0.0916343 9.07651e-06 581 30. 0.054122 0.046305 20.1635 26.1354 2 2458511.8368403 367120259 -101.020193004834 66.2017794500187 -1.6974357001479 3.30574794211524 551.95807628932 118.057171563456 4.70683431028424 1.04111376008049 0.273081158351051 13.7030004501343 0.0529999993741512 4.58799982070923 0.349000006914139 2458165.895058 2458450.042049 56
 118 367 15 3 ZTF_r 757340375915 0 2.2795 585.252 6.05091 26.1619 5.7834e-06 0.0229298 0.0900089 9.04821e-06 578 30. 0.055524 0.045074 20.2188 26.1619 2 2458511.8403704 367120259 -660.470979217176 105.375788019679 -6.97216578696865 1.84301340234083 -409.085929668019 190.39712953097 -2.16306384426906 1.03978641069465 0.273081158351051 13.7030004501343 0.0529999993741512 4.58799982070923 0.349000006914139 2458165.895058 2458450.042049 56
 119 367 15 3 ZTF_r 757343875915 0 2.2477 587.291 6.02953 26.1605 5.2413e-06 0.0218227 0.0942178 8.19581e-06 578 30. 0.056819 0.045738 20.2318 26.1605 2 2458511.8438773 367120259 125.253805397441 52.278601484589 2.66515068833575 2.37205342350782 -374.77557757535 91.4400493228651 -4.12619760648634 1.04401789218829 0.273081158351051 13.7030004501343 0.0529999993741512 4.58799982070923 0.349000006914139 2458165.895058 2458450.042049 56
 120 367 15 3 ZTF_r 757347385915 0 2.4167 588.756 6.0279 26.1689 5.6555e-06 0.0228886 0.087675 8.8719e-06 582 30. 0.054186 0.049474 20.1789 26.1689 2 2458511.8473843 367120259 -1108.15808007187 74.2996537380805 -16.5908917125949 3.1705130649736 -1425.95140495942 126.211780952761 -11.3741780591078 1.05129431184359 0.273081158351051 13.7030004501343 0.0529999993741512 4.58799982070923 0.349000006914139 2458165.895058 2458450.042049 56
 121 367 15 3 ZTF_r 757350875915 0 2.1734 582.513 6.04601 26.1535 5.1895e-06 0.0218094 0.0930457 8.09601e-06 581 30. 0.052476 0.046824 20.2532 26.1535 2 2458511.8508796 367120259 -723.994859483137 62.2771396278485 -12.9318788215637 4.3165540849358 -479.902091504036 112.28880558117 -4.30260396128443 1.04212647012823 0.273081158351051 13.7030004501343 0.0529999993741512 4.58799982070923 0.349000006914139 2458165.895058 2458450.042049 56
 122 367 15 3 ZTF_r 757354365915 0 2.3635 594.495 5.99143 26.1713 5.8605e-06 0.023208 0.0973957 9.16879e-06 581 30. 0.056111 0.049585 20.2123 26.1713 2 2458511.8543634 367120259 -399.984574837367 75.515573671772 -5.89198345266275 1.97721769000176 -1064.51030983165 130.143591730241 -8.23459560142019 1.04746074419279 0.273081158351051 13.7030004501343 0.0529999993741512 4.58799982070923 0.349000006914139 2458165.895058 2458450.042049 56
 123 367 15 3 ZTF_r 757361305915 0 2.6322 601.399 6.07326 26.1915 9.1129e-06 0.0288585 0.0882983 1.43014e-05 578 30. 0.062711 0.053276 20.1381 26.1915 2 2458511.8613079 367120259 -445.224838856539 105.380954698657 -4.69972079476619 2.27953616338716 -299.679131750606 176.027527247203 -1.71392220673118 1.04827938833656 0.273081158351051 13.7030004501343 0.0529999993741512 4.58799982070923 0.349000006914139 2458165.895058 2458450.042049 56
 124 367 15 3 ZTF_r 757364755915 0 2.1787 603.213 6.12967 26.2036 4.8648e-06 0.0210921 0.0918905 7.59773e-06 580 30. 0.052795 0.046662 20.2946 26.2036 2 2458511.8647569 367120259 955.588198922478 59.0912535487141 17.9888075569205 8.66370625300629 1102.11071056809 102.300526621381 10.8458238315825 1.04062074671464 0.273081158351051 13.7030004501343 0.0529999993741512 4.58799982070923 0.349000006914139 2458165.895058 2458450.042049 56
 125 367 15 3 ZTF_r 757368205915 0 2.2819 605.352 6.18801 26.209 5.3996e-06 0.0222191 0.0891252 8.45584e-06 579 30. 0.057445 0.0485 20.267 26.209 2 2458511.868206 367120259 708.972436397368 56.4321213054006 13.9751917719382 5.44230872101723 1249.46883708113 97.3012312736398 12.9277303598493 1.04479563654655 0.273081158351051 13.7030004501343 0.0529999993741512 4.58799982070923 0.349000006914139 2458165.895058 2458450.042049 56
 126 367 15 3 ZTF_r 757371645915 0 2.4883 609.447 6.26451 26.199 5.6844e-06 0.0227676 0.10037 8.82848e-06 581 30. 0.0614 0.057896 20.1411 26.199 2 2458511.8716435 367120259 209.55829881807 67.9197742422237 3.4321276465711 1.75062426607527 -280.693677709014 112.245166899954 -2.51756199026317 1.05655384693679 0.273081158351051 13.7030004501343 0.0529999993741512 4.58799982070923 0.349000006914139 2458165.895058 2458450.042049 56
 127 367 15 3 ZTF_r 757375085915 0 2.4892 610.236 6.34904 26.2027 5.4625e-06 0.0223707 0.0950832 8.52794e-06 578 30. 0.057572 0.050684 20.1502 26.2027 2 2458511.875081 367120259 -2257.67925796118 69.7979050850928 -35.9811182183781 5.5823045130397 -1073.98015589963 117.143030658581 -9.22985744830364 1.05947148516153 0.273081158351051 13.7030004501343 0.0529999993741512 4.58799982070923 0.349000006914139 2458165.895058 2458450.042049 56
 128 367 15 3 ZTF_r 758256205915 33556528 2.5334 21.0608 8.65077 22.7686 0.0202937 0.35568 0.226227 0.0434345 55 30. 0.090112 0.088836 16.3947 22.7686 2 2458512.7562037 367120259 -492.221443525472 64.9583362185252 -8.42908509149604 0.855347154926835 -528.038574276471 105.327572070869 -5.04706349916805 1.07435350419845 0.273081158351051 13.7030004501343 0.0529999993741512 4.58799982070923 0.349000006914139 2458165.895058 2458450.042049 56
 129 367 15 3 ZTF_r 758256665915 33554480 2.8003 13.8081 8.76023 22.0391 0.0102661 0.0820166 0.098369 0.0243053 12 30. 0.081469 0.113964 15.5784 22.0391 2 2458512.7566667 367120259 1272.1682801616 58.0122824243634 24.3937973322614 1.0741513240647 1828.02654321524 86.1669754170457 21.357816010739 1.11903271287551 0.273081158351051 13.7030004501343 0.0529999993741512 4.58799982070923 0.349000006914139 2458165.895058 2458450.042049 56
 130 367 15 3 ZTF_r 758257115915 33556528 2.678 17.9111 8.74432 22.6226 0.0415935 0.362675 0.0248359 0.0952566 29 30. 0.088642 0.096771 16.1957 22.6226 2 2458512.7571181 367120259 -1487.91163249943 55.3307336425089 -29.913381620886 1.08586308154336 -2260.74791605342 87.2701485980399 -26.0796414341282 1.07806532003467 0.273081158351051 13.7030004501343 0.0529999993741512 4.58799982070923 0.349000006914139 2458165.895058 2458450.042049 56
 131 367 15 3 ZTF_r 758257565915 33556512 2.4954 22.8487 9.03724 23.0902 0.0477438 0.532648 -0.123494 0.0996709 50 30. 0.120506 0.107219 16.6903 23.0902 2 2458512.7575694 367120259 2019.4768619783 56.210905141743 39.9643822374969 1.17759985465752 2869.82723743858 88.4556012338716 32.6622130051348 1.06206607417409 0.273081158351051 13.7030004501343 0.0529999993741512 4.58799982070923 0.349000006914139 2458165.895058 2458450.042049 56
 132 367 15 3 ZTF_r 758258795915 2048 2.3078 198.836 9.07131 24.9024 0.000779213 0.24735 0.151828 0.00125473 498 30. 0.070093 0.071048 18.5568 24.9024 2 2458512.7587963 367120259 6844.11028346658 104.636397656648 72.7593851478244 2.68183627063544 10482.612699967 172.763148818879 61.0848654459359 1.04636188577709 0.273081158351051 13.7030004501343 0.0529999993741512 4.58799982070923 0.349000006914139 2458165.895058 2458450.042049 56
 133 367 15 3 ZTF_r 758261935915 2048 2.5207 187.5 8.47619 24.9282 0.00073425 0.230119 0.0977898 0.00122448 459 30. 0.074153 0.072538 18.5892 24.9282 2 2458512.7619329 367120259 -13863.5573407867 115.528324911922 -133.487625472788 4.85850061079293 -20540.4614758251 195.471171073127 -105.789526671032 1.04241857625762 0.273081158351051 13.7030004501343 0.0529999993741512 4.58799982070923 0.349000006914139 2458165.895058 2458450.042049 56
 134 367 15 3 ZTF_r 758265085915 33556512 2.7696 42.6884 9.28473 23.3415 0.00379421 0.21203 0.0679734 0.00747034 94 30. 0.081348 0.080249 16.8127 23.3415 2 2458512.765081 367120259 -2356.55105078975 167.771839613131 -15.6247323615514 0.864545557740668 -3393.06314979536 262.399431039644 -13.0179993599632 1.0687975358462 0.273081158351051 13.7030004501343 0.0529999993741512 4.58799982070923 0.349000006914139 2458165.895058 2458450.042049 56
 135 367 15 3 ZTF_r 758284505915 33554480 2.3019 18.6866 9.63013 22.3777 0.00320289 0.111175 0.258079 0.00730204 38 30. 0.084164 0.073147 15.9651 22.3777 2 2458512.7845023 367120259 137.888535440953 52.4257601813098 2.92575680222698 0.917335618762392 91.5597851894976 90.6436264913489 1.01691039048874 1.07327692096348 0.273081158351051 13.7030004501343 0.0529999993741512 4.58799982070923 0.349000006914139 2458165.895058 2458450.042049 56
 136 367 15 3 ZTF_r 758287815915 33554480 2.6876 26.4226 9.6419 22.7015 0.00730243 0.195254 0.0879018 0.0156165 47 30. 0.094124 0.071524 16.1695 22.7015 2 2458512.7878125 367120259 39.8637181973703 55.8015783967719 0.794668725753676 0.872814524317924 130.697843719442 91.0572994524189 1.44500333315217 1.06924708067228 0.273081158351051 13.7030004501343 0.0529999993741512 4.58799982070923 0.349000006914139 2458165.895058 2458450.042049 56
 137 367 15 3 ZTF_r 758291135915 33554480 2.2525 10.2531 9.2816 21.917 0.0389096 0.0997859 -0.207992 0.0900459 8 30. 0.076977 0.092821 15.5551 21.917 2 2458512.7911343 367120259 290.392391605603 52.9180245513367 6.10430761767629 0.832158756956702 363.345870282255 93.9156545387422 3.89491003837683 1.11637747368917 0.273081158351051 13.7030004501343 0.0529999993741512 4.58799982070923 0.349000006914139 2458165.895058 2458450.042049 56
 138 367 15 3 ZTF_r 758301455915 0 1.9441 96.0169 7.43123 24.1861 4.92778e-05 0.0554582 0.101411 8.53297e-05 406 30. 0.05422 0.052711 18.1971 24.1861 2 2458512.8014583 367120259 25.8807617005259 34.1383137631258 0.843314930566198 1.68605372869023 -37.1183896301137 67.2950825759812 -0.555291452056456 1.03313147930979 0.273081158351051 13.7030004501343 0.0529999993741512 4.58799982070923 0.349000006914139 2458165.895058 2458450.042049 56
 139 367 15 3 ZTF_r 758305055915 33554464 2.0658 27.5536 8.42448 22.9865 0.00165294 0.159856 0.0875994 0.00351895 125 30. 0.072028 0.057718 16.8235 22.9865 2 2458512.8050579 367120259 116.112847075397 43.7443127295452 2.95266025018997 1.03166571336301 244.925945208889 84.1620449517062 2.9297712012957 1.04380045797757 0.273081158351051 13.7030004501343 0.0529999993741512 4.58799982070923 0.349000006914139 2458165.895058 2458450.042049 56
 140 367 15 3 ZTF_r 758308655915 0 1.9472 60.9572 7.69504 23.7282 8.88319e-05 0.0618979 0.110716 0.000165773 297 30. 0.056938 0.054726 17.6977 23.7282 2 2458512.8086574 367120259 610.497158903662 36.8627982466882 18.4225671822318 1.29613447697121 1257.01028075742 70.1605477818304 18.0368648382763 1.03698266079022 0.273081158351051 13.7030004501343 0.0529999993741512 4.58799982070923 0.349000006914139 2458165.895058 2458450.042049 56
 141 367 15 3 ZTF_r 758312255915 0 1.8707 45.6993 8.28287 23.4112 0.000301606 0.0930704 0.0725515 0.000606405 217 30. 0.058042 0.060237 17.3318 23.4112 2 2458512.8122569 367120259 -1149.39582534036 38.9099162954671 -32.8597397874001 1.46307326454401 -1758.49128584786 76.8817826303739 -23.0267140701453 1.03895814191267 0.273081158351051 13.7030004501343 0.0529999993741512 4.58799982070923 0.349000006914139 2458165.895058 2458450.042049 56
 142 367 15 3 ZTF_r 758315855915 0 2.1752 94.5553 7.9841 24.1628 0.000132041 0.0852013 0.0732944 0.000234476 362 30. 0.059372 0.050104 18.02 24.1628 2 2458512.8158565 367120259 1103.15383661662 45.660704316519 26.8749877296654 1.50426762703261 2043.61818643695 83.8478546911592 24.5370866085966 1.03402327618382 0.273081158351051 13.7030004501343 0.0529999993741512 4.58799982070923 0.349000006914139 2458165.895058 2458450.042049 56
 143 367 15 3 ZTF_r 758319445915 0 1.9951 117.434 7.59658 24.4554 0.000123009 0.0930739 0.0747718 0.00020787 447 30. 0.056556 0.053248 18.4185 24.4554 2 2458512.8194444 367120259 -915.913816072231 37.1179938899138 -27.4488981233922 2.56026304180634 -1168.73830279642 72.1144326070843 -16.3158715942447 1.0350483021892 0.273081158351051 13.7030004501343 0.0529999993741512 4.58799982070923 0.349000006914139 2458165.895058 2458450.042049 56
 144 367 15 3 ZTF_r 758323025915 0 2.0315 147.927 7.6681 24.6771 8.2189e-05 0.08149 0.0914865 0.000131747 513 30. 0.056139 0.049668 18.6309 24.6771 2 2458512.8230208 367120259 3628.14492094648 51.5037578601175 78.3610974244877 3.176077970131 5671.06289108214 86.0628663142997 66.3382254210263 1.03758398518419 0.273081158351051 13.7030004501343 0.0529999993741512 4.58799982070923 0.349000006914139 2458165.895058 2458450.042049 56
 145 367 15 3 ZTF_r 758326585915 33554432 1.7282 42.0826 8.17105 23.353 0.00061166 0.131846 0.102061 0.00116662 210 30. 0.063177 0.058837 17.3473 23.353 2 2458512.8265856 367120259 -966.478177877114 40.6807169083209 -26.4276323114289 1.1865324448817 -1584.50196248322 82.7617971906089 -19.2742754327927 1.0393705563466 0.273081158351051 13.7030004501343 0.0529999993741512 4.58799982070923 0.349000006914139 2458165.895058 2458450.042049 56
 146 367 15 3 ZTF_r 758330125915 33554480 2.0411 13.1776 9.03099 22.0793 0.00222838 0.0926795 0.196001 0.00480358 42 30. 0.066507 0.06597 15.8393 22.0793 2 2458512.8301273 367120259 646.625746574504 45.0714763786604 15.9590123096798 1.02376971857348 1114.57720585895 83.5874898140077 13.4240656103477 1.0876993834214 0.273081158351051 13.7030004501343 0.0529999993741512 4.58799982070923 0.349000006914139 2458165.895058 2458450.042049 56
 147 367 15 3 ZTF_r 758337195915 32 2.0022 42.0686 8.70226 23.3288 0.000503112 0.112838 0.103198 0.000996361 186 30. 0.060182 0.0487 17.1399 23.3288 2 2458512.8371991 367120259 -968.825484110761 44.6134375859316 -24.1565365333284 1.1016094355929 -1424.0846863859 86.1015868629808 -16.650982065694 1.04215997494612 0.273081158351051 13.7030004501343 0.0529999993741512 4.58799982070923 0.349000006914139 2458165.895058 2458450.042049 56
 148 367 15 3 ZTF_r 758354685915 33556480 1.8204 52.989 9.5552 23.5218 0.0038457 0.334311 0.10711 0.00768761 216 30. 0.067087 0.057988 17.298 23.5218 2 2458512.8546875 367120259 3188.6081579482 51.8077419818756 68.4638456166399 2.62576296818459 5388.40096462369 91.426778263738 59.3337341439838 1.03983559716949 0.273081158351051 13.7030004501343 0.0529999993741512 4.58799982070923 0.349000006914139 2458165.895058 2458450.042049 56
 149 367 15 3 ZTF_r 758358145915 0 1.8695 73.0366 9.40774 23.8984 0.000407786 0.131461 0.0836576 0.000772524 297 30. 0.057608 0.061393 17.7223 23.8984 2 2458512.8581481 367120259 1019.04534034617 42.8075852676762 26.4805851832147 1.36465385803838 1518.8536745903 81.7762691999505 18.6983737022415 1.03871396990586 0.273081158351051 13.7030004501343 0.0529999993741512 4.58799982070923 0.349000006914139 2458165.895058 2458450.042049 56
 150 367 15 3 ZTF_r 758361605915 48 1.7492 17.5493 10.2212 22.4891 0.00188124 0.106272 0.0525676 0.00451896 60 30. 0.061136 0.057238 16.2324 22.4891 2 2458512.8616088 367120259 260.397876626389 45.1561783774792 6.41468093734747 0.956568097432051 483.740790450948 91.9516399004329 5.29624934404595 1.05463526434975 0.273081158351051 13.7030004501343 0.0529999993741512 4.58799982070923 0.349000006914139 2458165.895058 2458450.042049 56
 151 367 15 3 ZTF_r 758365055915 33554480 1.6742 13.2006 10.1119 22.11 0.00110523 0.0606248 0.0480446 0.00254778 38 30. 0.058006 0.057898 15.882 22.11 2 2458512.8650579 367120259 216.149080448243 46.954764275178 5.12069051586741 0.891776013571935 469.746317219982 97.7111837483722 4.83987674237084 1.08830107487755 0.273081158351051 13.7030004501343 0.0529999993741512 4.58799982070923 0.349000006914139 2458165.895058 2458450.042049 56
 152 367 15 3 ZTF_r 758368495915 33554480 1.7665 22.0681 10.2225 22.4552 0.000423568 0.0501672 0.0730306 0.000928898 54 30. 0.064279 0.057732 16.1756 22.4552 2 2458512.8684954 367120259 -521.736099092848 45.6401586343472 -12.7162349228959 0.960784265290119 -703.439367578637 93.9177374968477 -7.54039749110618 1.05733709113041 0.273081158351051 13.7030004501343 0.0529999993741512 4.58799982070923 0.349000006914139 2458165.895058 2458450.042049 56
 153 367 15 3 ZTF_r 758371935915 0 1.7073 58.3374 9.16277 23.6705 5.46712e-05 0.0443856 0.0557772 0.000108312 256 30. 0.055255 0.057946 17.5562 23.6705 2 2458512.8719329 367120259 -319.450940550213 39.1287477202653 -9.08161367334881 1.38484430000193 -370.091251013986 82.3591550621838 -4.52389095785913 1.02873847313041 0.273081158351051 13.7030004501343 0.0529999993741512 4.58799982070923 0.349000006914139 2458165.895058 2458450.042049 56
 154 367 15 3 ZTF_r 758375355915 33554464 1.6996 37.0685 10.6512 23.1704 0.00132605 0.16233 0.111487 0.00267692 146 30. 0.055808 0.054968 16.8856 23.1704 2 2458512.8753588 367120259 1175.81374627801 48.6872163296503 26.8644769685999 1.23130910391261 1958.77690673679 98.0531187506026 20.1112356958007 1.03496141998242 0.273081158351051 13.7030004501343 0.0529999993741512 4.58799982070923 0.349000006914139 2458165.895058 2458450.042049 56
 155 367 15 3 ZTF_r 758458135915 0 1.8028 178.439 9.91431 24.8669 6.43164e-05 0.0727808 0.101326 0.000104146 517 30. 0.053334 0.046958 18.6498 24.8669 1 2458512.9581366 367120259 -410.299878949343 46.7259237024922 -9.76783454153299 1.65156746896685 -760.37666681009 96.0068785397442 -7.97336460733242 1.02855694951718 0.273081158351051 13.7030004501343 0.0529999993741512 4.58799982070923 0.349000006914139 2458165.895058 2458450.042049 56
 156 367 15 3 ZTF_r 759362375915 8 4.3106 256.975 5.38257 25.3395 8.54254e-05 0.0855563 0.0395258 0.00013861 533 30. 0.073562 0.052731 19.1544 25.3395 2 2458513.8623727 367120259 -4391.60537594385 47.7989687194538 -102.202044209891 7.81515793200691 -3897.0582653185 73.2311493819255 -53.5742673720841 1.03277624702233 0.273081158351051 13.7030004501343 0.0529999993741512 4.58799982070923 0.349000006914139 2458165.895058 2458450.042049 56
 157 367 15 3 ZTF_r 759365825915 0 1.8505 213.441 5.45032 25.1182 0.000100697 0.0961239 0.0581799 0.000159112 575 30. 0.053293 0.047953 19.5115 25.1182 2 2458513.8658218 367120259 -2341.43139565491 35.2235758755309 -73.943975361583 6.52455729888352 -2905.31016901503 72.1781704612346 -40.5230221474095 1.02646882477573 0.273081158351051 13.7030004501343 0.0529999993741512 4.58799982070923 0.349000006914139 2458165.895058 2458450.042049 56
 158 367 15 3 ZTF_r 759369245915 0 1.9857 303.172 5.34282 25.4556 0.000181284 0.128742 0.0530335 0.000286608 576 30. 0.052414 0.047619 19.8145 25.4556 2 2458513.8692477 367120259 -5553.99535806454 66.3908886685202 -93.0575965636188 4.64323054879977 -7856.32236783959 130.49328188403 -60.6102861144127 1.0268466184774 0.273081158351051 13.7030004501343 0.0529999993741512 4.58799982070923 0.349000006914139 2458165.895058 2458450.042049 56
 159 367 15 3 ZTF_r 759372675915 0 1.95 308.758 5.25503 25.5231 5.39037e-05 0.0699822 0.0569153 8.48923e-05 577 30. 0.055203 0.045866 19.8929 25.5231 2 2458513.8726736 367120259 -2852.48960111125 48.0464985919702 -66.0415301615296 6.11952243338288 -2672.33574339749 95.7420941515191 -28.0998039809345 1.02657395358031 0.273081158351051 13.7030004501343 0.0529999993741512 4.58799982070923 0.349000006914139 2458165.895058 2458450.042049 56
 160 367 15 3 ZTF_r 760247285915 0 3.0644 214.248 8.37454 25.0932 0.000293932 0.145598 0.112647 0.000485948 458 30. 0.090454 0.086012 18.6137 25.0932 2 2458514.7472801 367120259 9338.19583481405 131.098636820233 79.2354634872886 3.06147186713957 13614.1889855239 191.379915855815 71.6160902796012 1.05419605665493 0.273081158351051 13.7030004501343 0.0529999993741512 4.58799982070923 0.349000006914139 2458165.895058 2458450.042049 56
 161 367 15 3 ZTF_r 760247735915 0 2.5939 386.241 7.58731 25.7195 4.91121e-05 0.0672502 0.10005 7.69815e-05 578 30. 0.077369 0.073083 19.4665 25.7195 2 2458514.7477315 367120259 5775.21090921972 90.1823765140272 71.2362377159364 5.14105148715248 6401.43200037599 139.230102128618 46.2870163468743 1.04271725360039 0.273081158351051 13.7030004501343 0.0529999993741512 4.58799982070923 0.349000006914139 2458165.895058 2458450.042049 56
 162 367 15 3 ZTF_r 760248195915 0 2.1973 394.663 7.14241 25.7313 1.24631e-05 0.0339077 0.0981741 1.95018e-05 579 30. 0.073188 0.069122 19.6859 25.7313 2 2458514.7481944 367120259 -2258.11650281322 60.9432841642976 -41.2168968732166 10.1035256448181 -4103.00359662863 108.274246470241 -38.1497696504697 1.0372507554752 0.273081158351051 13.7030004501343 0.0529999993741512 4.58799982070923 0.349000006914139 2458165.895058 2458450.042049 56
 163 367 15 3 ZTF_r 760248645915 0 2.3128 371.221 7.45565 25.6698 0.00010358 0.0980159 0.119555 0.000161883 582 30. 0.072149 0.073176 19.5338 25.6698 2 2458514.7486458 367120259 12349.3823342211 155.925312557184 88.1015226430954 3.36650233652427 17316.5778631574 259.611935141841 67.1510190848841 1.04193111653969 0.273081158351051 13.7030004501343 0.0529999993741512 4.58799982070923 0.349000006914139 2458165.895058 2458450.042049 56
 164 367 15 3 ZTF_r 760249095915 0 2.4834 502.403 6.73409 25.99 1.34829e-05 0.0351273 0.111165 2.102e-05 580 30. 0.080781 0.08031 19.8788 25.99 2 2458514.7490972 367120259 3426.65309347337 138.517790789019 27.5181595506398 3.2522629699156 1722.68026940005 226.563376392073 7.65473505800644 1.04665017650562 0.273081158351051 13.7030004501343 0.0529999993741512 4.58799982070923 0.349000006914139 2458165.895058 2458450.042049 56
 165 367 15 3 ZTF_r 760249565915 0 2.2044 481.733 6.74756 25.9446 1.14793e-05 0.0324159 0.101849 1.80454e-05 576 30. 0.073005 0.068442 19.9438 25.9446 2 2458514.7495602 367120259 -541.920096716114 69.186594407254 -8.71300782732759 4.03035644708432 -2811.80254831473 121.586935863067 -23.2816147570529 1.03954114346512 0.273081158351051 13.7030004501343 0.0529999993741512 4.58799982070923 0.349000006914139 2458165.895058 2458450.042049 56
 166 367 15 3 ZTF_r 760250015915 0 2.2536 451.572 6.96913 25.8717 1.65445e-05 0.0388796 0.106207 2.57952e-05 580 30. 0.077932 0.073983 19.8354 25.8717 2 2458514.7500116 367120259 3747.80251587315 73.2828409287822 56.8891182347972 4.67943941956589 2900.56935609843 119.076815062727 24.522866655927 1.03845681870992 0.273081158351051 13.7030004501343 0.0529999993741512 4.58799982070923 0.349000006914139 2458165.895058 2458450.042049 56
 167 367 15 3 ZTF_r 760250475915 0 2.0971 469.423 6.85573 25.9293 9.236e-06 0.0291331 0.0982146 1.44671e-05 579 30. 0.070074 0.066922 19.9739 25.9293 2 2458514.7504745 367120259 4245.09633462654 77.7094213260936 60.7671231481002 5.25779269673312 3706.05471192748 130.989463337091 28.483323074913 1.03552650473708 0.273081158351051 13.7030004501343 0.0529999993741512 4.58799982070923 0.349000006914139 2458165.895058 2458450.042049 56
 168 367 15 3 ZTF_r 760250925915 0 2.0844 460.57 6.81211 25.8943 1.43194e-05 0.0362177 0.103156 2.24402e-05 579 30. 0.062652 0.066563 19.9457 25.8943 2 2458514.7509259 367120259 313.885372142624 56.1575360121126 6.2175292027009 5.60200861626598 34.8249440686845 100.465134877966 0.348971731469067 1.03478965761496 0.273081158351051 13.7030004501343 0.0529999993741512 4.58799982070923 0.349000006914139 2458165.895058 2458450.042049 56
 169 367 15 3 ZTF_r 760251375915 0 2.053 443.263 6.8887 25.8583 1.69325e-05 0.0393672 0.097211 2.65215e-05 578 30. 0.062145 0.065192 19.9168 25.8583 2 2458514.7513773 367120259 1397.98260329674 73.8510504495841 21.0571645571302 6.98979570772129 -1769.93240325748 130.479461220253 -13.6561952598693 1.03441357855025 0.273081158351051 13.7030004501343 0.0529999993741512 4.58799982070923 0.349000006914139 2458165.895058 2458450.042049 56
 170 367 15 3 ZTF_r 760251845915 0 1.946 426.565 7.01698 25.8133 8.394e-06 0.0275409 0.0966779 1.31578e-05 576 30. 0.059801 0.058359 19.8991 25.8133 2 2458514.7518403 367120259 379.937002096183 51.7966582474866 8.15952075226022 4.30372849296947 19.5594009164273 97.5908651250504 0.20177231323563 1.03219578509207 0.273081158351051 13.7030004501343 0.0529999993741512 4.58799982070923 0.349000006914139 2458165.895058 2458450.042049 56
 171 367 15 3 ZTF_r 760252295915 0 1.9535 407.372 7.20492 25.7584 1.1371e-05 0.032162 0.10731 1.78025e-05 577 30. 0.056066 0.058483 19.8269 25.7584 2 2458514.7522917 367120259 781.471882252295 45.5291066951318 19.0932134750921 7.20074497731979 2679.36972611842 85.953758924063 31.382169542628 1.03263695963566 0.273081158351051 13.7030004501343 0.0529999993741512 4.58799982070923 0.349000006914139 2458165.895058 2458450.042049 56
 172 367 15 3 ZTF_r 760252745915 0 2.0103 415.191 7.0309 25.7821 9.9303e-06 0.0300074 0.102921 1.55784e-05 576 30. 0.059949 0.060107 19.8284 25.7821 2 2458514.7527431 367120259 1586.75336901164 60.8815045047419 28.9920452606802 3.65974835152046 384.640121875323 108.668788335074 3.56340308159492 1.03408505079776 0.273081158351051 13.7030004501343 0.0529999993741512 4.58799982070923 0.349000006914139 2458165.895058 2458450.042049 56
 173 367 15 3 ZTF_r 760253205915 0 2 426.751 7.06164 25.8102 7.963e-06 0.0270119 0.101221 1.24735e-05 579 30. 0.061352 0.061406 19.8558 25.8102 2 2458514.753206 367120259 1062.96680565296 57.6017268650714 20.5276389334706 11.9293907247565 1115.13909621272 105.071989900012 10.6845756252782 1.03310297912411 0.273081158351051 13.7030004501343 0.0529999993741512 4.58799982070923 0.349000006914139 2458165.895058 2458450.042049 56
 174 367 15 3 ZTF_r 760253655915 0 2.0012 397.406 7.20107 25.7289 1.52615e-05 0.0372262 0.0956553 2.38874e-05 578 30. 0.059838 0.056137 19.7521 25.7289 2 2458514.7536574 367120259 490.059052432249 48.2472331733682 11.298760527908 5.6052593498315 343.297765916523 88.8776968756137 3.88860094569355 1.03328719425143 0.273081158351051 13.7030004501343 0.0529999993741512 4.58799982070923 0.349000006914139 2458165.895058 2458450.042049 56
 175 367 15 3 ZTF_r 760256805915 0 2.5207 413.117 7.02622 25.7924 1.53759e-05 0.0373943 0.0869436 2.41587e-05 577 30. 0.067595 0.062645 19.6485 25.7924 2 2458514.7568056 367120259 -1691.7003541765 60.8480864963991 -30.9265386603799 7.76967807093572 -610.338038044953 106.467672224008 -5.7712231986638 1.03300117343589 0.273081158351051 13.7030004501343 0.0529999993741512 4.58799982070923 0.349000006914139 2458165.895058 2458450.042049 56
 176 367 15 3 ZTF_r 760259955915 0 2.3188 434.241 6.88875 25.8475 9.4445e-06 0.0293425 0.0881574 1.48343e-05 578 30. 0.065886 0.064551 19.7987 25.8475 2 2458514.7599537 367120259 155.903256059324 51.3085996837934 3.38002431615813 2.65944459363527 -721.059660017697 91.6939788826064 -7.91672525459268 1.0304380077664 0.273081158351051 13.7030004501343 0.0529999993741512 4.58799982070923 0.349000006914139 2458165.895058 2458450.042049 56
 177 367 15 3 ZTF_r 760266315915 0 2.3878 413.661 6.95136 25.7891 2.58369e-05 0.0485118 0.0970833 4.05876e-05 576 30. 0.061433 0.063948 19.691 25.7891 2 2458514.7663194 367120259 3311.63147495457 68.5657394720797 53.7266347290181 4.20079795823645 5567.25809602519 116.277832265071 48.2013965210223 1.03253368536152 0.273081158351051 13.7030004501343 0.0529999993741512 4.58799982070923 0.349000006914139 2458165.895058 2458450.042049 56
 178 367 15 3 ZTF_r 760269535915 0 2.5216 234.217 7.67698 25.1681 4.24894e-05 0.0616561 0.0981727 6.67857e-05 559 30. 0.071201 0.060354 18.9556 25.1681 2 2458514.769537 367120259 2230.05143454722 54.3952174818306 45.6046328262294 6.10310609939858 2930.802520131 88.8530059609214 33.2069985907423 1.03130452159715 0.273081158351051 13.7030004501343 0.0529999993741512 4.58799982070923 0.349000006914139 2458165.895058 2458450.042049 56
 179 367 15 3 ZTF_r 760272785915 0 2.1481 400.041 6.58881 25.7615 7.3343e-06 0.0259063 0.0845064 1.14542e-05 579 30. 0.057004 0.053895 19.8187 25.7615 2 2458514.7727894 367120259 -203.474793504742 50.5163495727382 -4.48057196953236 3.13871988532187 -781.769239238365 94.2052726760252 -8.35446337223918 1.0286590658308 0.273081158351051 13.7030004501343 0.0529999993741512 4.58799982070923 0.349000006914139 2458165.895058 2458450.042049 56
 180 367 15 3 ZTF_r 760276075915 0 2.4463 383.835 6.87472 25.7007 6.45223e-05 0.0769315 0.0841543 0.000100975 577 30. 0.061763 0.056819 19.5859 25.7007 2 2458514.7760764 367120259 5396.9672355523 122.745035563046 48.910336026857 1.89150413521755 8331.58906039175 212.332211593049 39.5027336132418 1.03015717556818 0.273081158351051 13.7030004501343 0.0529999993741512 4.58799982070923 0.349000006914139 2458165.895058 2458450.042049 56
 181 367 15 3 ZTF_r 760279375915 33556480 2.6041 147.06 8.53549 24.5397 0.00143353 0.29474 0.173205 0.00244012 391 30. 0.064877 0.069075 18.1632 24.5397 2 2458514.779375 367120259 4344.13932119588 72.682200177377 66.4860421726836 2.26079613729759 6622.33575545977 116.827822828662 57.0663512027091 1.03201333725664 0.273081158351051 13.7030004501343 0.0529999993741512 4.58799982070923 0.349000006914139 2458165.895058 2458450.042049 56
 182 367 15 3 ZTF_r 760282695915 0 2.2957 194.561 7.91183 24.9671 2.81734e-05 0.0495055 0.079195 4.5097e-05 543 30. 0.062292 0.054497 18.7933 24.9671 2 2458514.7826968 367120259 -1387.97583142627 47.2009240174669 -32.7104263215473 1.90031545768022 -1620.8631175233 86.1952376195763 -18.9312051215394 1.03096250928301 0.273081158351051 13.7030004501343 0.0529999993741512 4.58799982070923 0.349000006914139 2458165.895058 2458450.042049 56
 183 367 15 3 ZTF_r 760289365915 33554480 2.7228 29.3559 8.87525 22.8034 0.00133698 0.0921071 0.0645901 0.00268636 56 30. 0.079809 0.078681 16.3422 22.8034 2 2458514.7893634 367120259 -313.341636827476 50.5031332370601 -6.90167629624196 0.988616134485722 -487.647392731523 82.8738443734243 -5.92384400277379 1.05225356849212 0.273081158351051 13.7030004501343 0.0529999993741512 4.58799982070923 0.349000006914139 2458165.895058 2458450.042049 56
 184 367 15 3 ZTF_r 760292905915 0 2.7099 91.4456 8.28691 24.205 0.000153495 0.0810131 0.0529713 0.00029216 291 30. 0.07195 0.06573 17.8265 24.205 2 2458514.7929051 367120259 1239.169824305 70.1278442909971 19.6559998977545 1.70006438557325 2880.37357431815 116.395765829076 24.9130458948262 1.03675746988997 0.273081158351051 13.7030004501343 0.0529999993741512 4.58799982070923 0.349000006914139 2458165.895058 2458450.042049 56
 185 367 15 3 ZTF_r 760303705915 33554480 2.2908 25.7674 9.01057 22.6478 0.000531562 0.0674186 0.109539 0.00115893 72 30. 0.071142 0.058399 16.3097 22.6478 2 2458514.8037037 367120259 -273.100299489115 48.3191486983906 -6.28720619001345 0.906997452914781 -350.700864229577 89.4318259551075 -3.94784352166682 1.064284769669 0.273081158351051 13.7030004501343 0.0529999993741512 4.58799982070923 0.349000006914139 2458165.895058 2458450.042049 56
 186 367 15 3 ZTF_r 760310895915 32 2.2615 29.938 8.69201 22.8818 0.000291505 0.0609103 0.0914451 0.000620293 105 30. 0.064065 0.056949 16.5987 22.8818 2 2458514.8108912 367120259 -30.4256022836564 45.3278275114043 -0.746670650071537 0.827738083391484 116.352614718903 84.9713914220601 1.37853757968427 1.04350021144849 0.273081158351051 13.7030004501343 0.0529999993741512 4.58799982070923 0.349000006914139 2458165.895058 2458450.042049 56
 187 367 15 3 ZTF_r 760314495915 33554464 2.2659 33.1612 8.70203 23.0462 0.000210663 0.0574073 0.0847769 0.000432459 119 30. 0.071495 0.05629 16.7505 23.0462 2 2458514.8144907 367120259 197.577731076937 43.965048947603 4.99902413957894 0.920029132015442 459.577465215932 81.9996509535487 5.64237457727722 1.03522858027021 0.273081158351051 13.7030004501343 0.0529999993741512 4.58799982070923 0.349000006914139 2458165.895058 2458450.042049 56
 188 367 15 3 ZTF_r 760325165915 0 2.2132 108.995 7.86218 24.3212 4.18527e-05 0.0510931 0.0814921 7.32856e-05 403 30. 0.060154 0.048712 18.1774 24.3212 2 2458514.825162 367120259 -119.88298087744 40.820817579135 -3.26686084327835 1.3286619404637 -37.0575262907049 77.6184101655768 -0.480647706939502 1.02805738494873 0.273081158351051 13.7030004501343 0.0529999993741512 4.58799982070923 0.349000006914139 2458165.895058 2458450.042049 56
 189 367 15 3 ZTF_r 760335755915 33554480 2.1757 27.3583 8.81975 22.6995 0.000497831 0.0675934 0.093323 0.000965737 79 30. 0.070428 0.052852 16.4244 22.6995 2 2458514.8357523 367120259 -521.457837012491 54.1848211262686 -10.7052387130101 0.889296373958146 -839.500521501288 101.924042021935 -8.29200440885482 1.05158989900997 0.273081158351051 13.7030004501343 0.0529999993741512 4.58799982070923 0.349000006914139 2458165.895058 2458450.042049 56
 190 367 15 3 ZTF_r 760339245915 33554464 2.1028 44.1571 8.45012 23.3598 0.000143745 0.0627753 0.083376 0.000284621 191 30. 0.059012 0.055334 17.1607 23.3598 2 2458514.8392477 367120259 -10.4008871468445 47.0614530916332 -0.245844135427788 1.0919677818514 213.073990232119 91.4388554692318 2.34592892392124 1.03518074090936 0.273081158351051 13.7030004501343 0.0529999993741512 4.58799982070923 0.349000006914139 2458165.895058 2458450.042049 56
 191 367 15 3 ZTF_r 760342745915 0 2.1051 59.2197 8.29913 23.6923 0.000112729 0.0625797 0.0713002 0.000217369 250 30. 0.061633 0.054377 17.5151 23.6923 2 2458514.8427431 367120259 230.463472997042 40.1817627072414 6.38010636028811 1.07945078223503 673.5311327931 77.0480357436295 8.80058001712364 1.03576832476616 0.273081158351051 13.7030004501343 0.0529999993741512 4.58799982070923 0.349000006914139 2458165.895058 2458450.042049 56
 192 367 15 3 ZTF_r 760346225915 0 1.914 96.2252 8.06042 24.197 5.76639e-05 0.0595856 0.0783559 0.000102011 400 30. 0.057336 0.052691 18.1355 24.197 2 2458514.8462269 367120259 -581.388651874975 34.8650422802978 -18.5494550532016 1.24867656313181 -735.871781022418 69.6269118563297 -10.6399652096386 1.02864756519675 0.273081158351051 13.7030004501343 0.0529999993741512 4.58799982070923 0.349000006914139 2458165.895058 2458450.042049 56
 193 367 15 3 ZTF_r 760349695915 0 2.3276 118.357 7.88213 24.4444 3.45488e-05 0.0469275 0.070192 5.98723e-05 407 30. 0.058429 0.06384 18.2585 24.4444 2 2458514.8496991 367120259 -339.630119817945 40.1924680497838 -9.3997504579947 1.3269884792351 -385.472446419924 71.2855842837763 -5.44385838207969 1.03757214376524 0.273081158351051 13.7030004501343 0.0529999993741512 4.58799982070923 0.349000006914139 2458165.895058 2458450.042049 56
 194 367 15 3 ZTF_r 760353175915 33554432 2.2914 115.584 7.54001 24.406 4.40974e-05 0.0527198 0.0740843 7.69396e-05 403 30. 0.059604 0.067981 18.279 24.406 2 2458514.8531713 367120259 -18.8227822018596 40.9084452815574 -0.511829889134808 1.73359704879866 -338.265707007244 71.8829791785292 -4.73747679767482 1.03615807480412 0.273081158351051 13.7030004501343 0.0529999993741512 4.58799982070923 0.349000006914139 2458165.895058 2458450.042049 56
 195 367 15 3 ZTF_r 760356635915 33554432 1.9806 62.7848 8.70197 23.7785 8.99655e-05 0.0582762 0.0857285 0.000167119 265 30. 0.056095 0.061004 17.6106 23.7785 2 2458514.8566319 367120259 496.389623263016 38.9011785427133 14.1943247285407 1.32087584637672 1164.37448311124 74.1525067563537 15.8081859066313 1.03801197866121 0.273081158351051 13.7030004501343 0.0529999993741512 4.58799982070923 0.349000006914139 2458165.895058 2458450.042049 56
 196 367 15 3 ZTF_r 760360065915 0 2.2225 139.266 8.12973 24.6176 3.48828e-05 0.049337 0.104751 5.74267e-05 445 30. 0.061931 0.055508 18.4258 24.6176 2 2458514.8600694 367120259 731.151033764028 55.0317131729155 14.7791299077803 1.72744072615113 1631.34103863211 100.811700038705 16.2910477033501 1.0323802434205 0.273081158351051 13.7030004501343 0.0529999993741512 4.58799982070923 0.349000006914139 2458165.895058 2458450.042049 56
 197 367 15 3 ZTF_r 760363515915 33554432 1.8354 158.042 7.31208 24.7513 2.31646e-05 0.0449274 0.091309 3.62334e-05 553 30. 0.053454 0.053057 18.8466 24.7513 2 2458514.8635185 367120259 193.088149628217 37.2479311955418 5.76644647758594 2.22992527696374 407.640150833992 73.8006643189586 5.56073084829907 1.02954048446998 0.273081158351051 13.7030004501343 0.0529999993741512 4.58799982070923 0.349000006914139 2458165.895058 2458450.042049 56
 198 367 15 3 ZTF_r 760366945915 33554464 1.6983 27.231 9.04466 22.9825 0.00206374 0.177746 -0.00971683 0.00412034 119 30. 0.060689 0.063354 16.8716 22.9825 2 2458514.8669444 367120259 -385.975219842332 38.2161365111114 -11.2348543028988 0.97339736621776 -694.684664724394 77.7021966696961 -9.00056157849503 1.04467484208947 0.273081158351051 13.7030004501343 0.0529999993741512 4.58799982070923 0.349000006914139 2458165.895058 2458450.042049 56
 199 367 15 3 ZTF_r 760370375915 0 1.9315 339.246 6.25152 25.5689 1.21949e-05 0.033363 0.0912399 1.90557e-05 579 30. 0.052182 0.050914 19.7717 25.5689 2 2458514.8703704 367120259 -826.472296781409 58.9754430564559 -15.5887714396797 2.5398297856331 -446.097528416465 117.283614415926 -3.82919662881353 1.02700214963542 0.273081158351051 13.7030004501343 0.0529999993741512 4.58799982070923 0.349000006914139 2458165.895058 2458450.042049 56
 200 367 15 3 ZTF_r 760373775915 0 1.9187 276.947 6.75741 25.3391 1.22644e-05 0.0334018 0.0925457 1.93163e-05 576 30. 0.052405 0.052153 19.4853 25.3391 2 2458514.8737731 367120259 -505.329688377486 37.6544220493075 -14.9284125715975 4.00579092612381 -484.415025159328 74.4682340775942 -6.54880022690482 1.02883174045834 0.273081158351051 13.7030004501343 0.0529999993741512 4.58799982070923 0.349000006914139 2458165.895058 2458450.042049 56
 201 367 15 3 ZTF_r 768232335915 0 2.3772 543.007 7.28936 26.0828 6.7948e-06 0.0247586 0.0947636 1.06077e-05 576 30. 0.056867 0.050984 19.9431 26.0828 2 2458522.732338 367120259 1374.78291091512 78.2498874281027 19.5436287728237 2.37855411710603 1554.98692709993 136.622496422139 11.458287577201 1.03776679122268 0.273081158351051 13.7030004501343 0.0529999993741512 4.58799982070923 0.349000006914139 2458165.895058 2458450.042049 56
 202 367 15 3 ZTF_r 768235305915 0 2.4292 549.269 7.26537 26.0962 6.4939e-06 0.0241837 0.0930193 1.01706e-05 575 30. 0.057837 0.063486 19.9385 26.0962 2 2458522.7353009 367120259 17.4693926210302 73.2934212023402 0.265135336087999 5.04276314489091 248.01724826081 129.315266087603 1.93084441034478 1.03661249532331 0.273081158351051 13.7030004501343 0.0529999993741512 4.58799982070923 0.349000006914139 2458165.895058 2458450.042049 56
 203 367 15 3 ZTF_r 768238265915 0 2.6929 545.157 6.83885 26.1059 1.11919e-05 0.0319686 0.0928515 1.75966e-05 577 30. 0.06232 0.073215 19.8867 26.1059 2 2458522.7382639 367120259 1093.30708618403 86.6224765589242 14.0399760802309 2.52277138491294 2191.01674674599 138.024037838899 15.9810813038946 1.05136974158148 0.273081158351051 13.7030004501343 0.0529999993741512 4.58799982070923 0.349000006914139 2458165.895058 2458450.042049 56
 204 367 15 3 ZTF_r 768241215915 0 3.1117 551.555 6.80002 26.0981 1.05853e-05 0.0310891 0.0897498 1.66345e-05 578 30. 0.061808 0.068109 19.7741 26.0981 2 2458522.7412153 367120259 981.126402108573 226.594018539011 4.81649731291623 1.32186111651295 733.093579317241 330.231436022272 2.23489022015045 1.08119248833778 0.273081158351051 13.7030004501343 0.0529999993741512 4.58799982070923 0.349000006914139 2458165.895058 2458450.042049 56
 205 367 15 3 ZTF_r 768244165915 0 2.5926 552.903 6.73491 26.1105 6.0245e-06 0.0234654 0.0895175 9.40383e-06 579 30. 0.055952 0.053704 19.9662 26.1105 2 2458522.7441667 367120259 906.902035393129 60.7742754505569 16.5995145668451 2.03390220643134 1095.01819428597 100.918914147341 10.9235539654813 1.04231517187152 0.273081158351051 13.7030004501343 0.0529999993741512 4.58799982070923 0.349000006914139 2458165.895058 2458450.042049 56
 206 367 15 3 ZTF_r 768247125915 0 2.2826 558.126 6.64777 26.1098 6.5413e-06 0.0244569 0.0910139 1.01877e-05 580 30. 0.056236 0.056256 20.0829 26.1098 2 2458522.7471296 367120259 -52.5762836461851 79.2563820674 -0.737921972685218 2.46991292784783 659.770494874291 143.857321019416 4.61717264307638 1.03322819600184 0.273081158351051 13.7030004501343 0.0529999993741512 4.58799982070923 0.349000006914139 2458165.895058 2458450.042049 56
 207 367 15 3 ZTF_r 768250085915 0 2.3519 557.599 6.60496 26.1202 6.9639e-06 0.0251581 0.089834 1.08757e-05 579 30. 0.05545 0.054623 20.0744 26.1202 2 2458522.750081 367120259 2052.0987998309 64.6585771655336 35.3042446405218 3.82197746303815 1637.74969864713 109.019640281175 15.1236972791589 1.03435331387708 0.273081158351051 13.7030004501343 0.0529999993741512 4.58799982070923 0.349000006914139 2458165.895058 2458450.042049 56
 208 367 15 3 ZTF_r 768253045915 0 2.2216 564.423 6.92583 26.1343 6.0792e-06 0.0234746 0.0961564 9.43938e-06 581 30. 0.05096 0.048048 20.0822 26.1343 2 2458522.753044 367120259 -33.1790672620198 71.0897099351373 -0.519173159248806 3.67353906187188 457.317493833386 131.571595352034 3.49921692622356 1.03155849268571 0.273081158351051 13.7030004501343 0.0529999993741512 4.58799982070923 0.349000006914139 2458165.895058 2458450.042049 56
 209 367 15 3 ZTF_r 768256005915 0 2.1053 565.4 6.50807 26.1375 5.5457e-06 0.0225671 0.0896861 8.58491e-06 583 30. 0.05304 0.049419 20.1732 26.1375 2 2458522.7560069 367120259 105.416710626564 50.1066040197522 2.34028792740121 2.89209546245677 876.846129276103 95.2139743806857 9.27124137132025 1.02951467743304 0.273081158351051 13.7030004501343 0.0529999993741512 4.58799982070923 0.349000006914139 2458165.895058 2458450.042049 56
 210 367 15 3 ZTF_r 768258955915 0 2.0822 567.914 6.44519 26.1392 4.8823e-06 0.0210483 0.091422 7.56583e-06 580 30. 0.051448 0.047216 20.1917 26.1392 2 2458522.7589583 367120259 752.823623516963 78.574984631451 10.6577059834902 4.63962518535401 319.862952801135 147.556318986615 2.18233451744447 1.03010580026304 0.273081158351051 13.7030004501343 0.0529999993741512 4.58799982070923 0.349000006914139 2458165.895058 2458450.042049 56
 211 367 15 3 ZTF_r 768261925915 0 2.0274 570.792 6.37525 26.1443 6.0902e-06 0.0235824 0.094688 9.46154e-06 580 30. 0.047783 0.048007 20.2475 26.1443 2 2458522.7619213 367120259 222.889532982912 49.0785053930578 5.05188140574825 4.01007094160677 121.733305073607 94.0592511932994 1.30293601461206 1.02895255033462 0.273081158351051 13.7030004501343 0.0529999993741512 4.58799982070923 0.349000006914139 2458165.895058 2458450.042049 56
 212 367 15 3 ZTF_r 768264885915 0 2.042 572.807 6.3163 26.1603 5.6473e-06 0.0226234 0.0907669 8.79976e-06 579 30. 0.048123 0.044927 20.2544 26.1603 2 2458522.7648843 367120259 527.503834518898 65.3748288400005 8.97573159465829 3.4491291669317 488.84137048087 125.069091434014 3.93489502157415 1.02934767179666 0.273081158351051 13.7030004501343 0.0529999993741512 4.58799982070923 0.349000006914139 2458165.895058 2458450.042049 56
 213 367 15 3 ZTF_r 768267845915 0 2.1538 573.736 6.30259 26.1529 5.1138e-06 0.0215842 0.0895613 7.95956e-06 580 30. 0.053704 0.045719 20.1822 26.1529 2 2458522.7678472 367120259 585.071794484261 55.532800924458 11.7196430473073 5.07848960104614 115.833978667129 101.450611363174 1.1494669732496 1.03137370862865 0.273081158351051 13.7030004501343 0.0529999993741512 4.58799982070923 0.349000006914139 2458165.895058 2458450.042049 56
 214 367 15 3 ZTF_r 768270815915 0 2.0524 577.947 6.29611 26.1612 5.0106e-06 0.021402 0.0877209 7.82429e-06 582 30. 0.049883 0.044996 20.2304 26.1612 2 2458522.7708102 367120259 -114.681355002089 62.3652603502214 -2.04552540189683 3.05652162171372 196.258650546368 119.640303048571 1.65145405699372 1.02909852130031 0.273081158351051 13.7030004501343 0.0529999993741512 4.58799982070923 0.349000006914139 2458165.895058 2458450.042049 56
 215 367 15 3 ZTF_r 768273775915 0 2.0334 578.307 6.23581 26.1597 6.1309e-06 0.023549 0.0891496 9.53919e-06 579 30. 0.047866 0.045888 20.2547 26.1597 2 2458522.7737731 367120259 -7.41856338694436 47.526699285413 -0.173634875177457 3.94159759817347 199.037036017138 90.1871252832031 2.22179785947353 1.02879494121642 0.273081158351051 13.7030004501343 0.0529999993741512 4.58799982070923 0.349000006914139 2458165.895058 2458450.042049 56
 216 367 15 3 ZTF_r 768276745915 0 2.2285 578.731 6.20441 26.1665 6.0922e-06 0.0235555 0.0874135 9.5182e-06 580 30. 0.052168 0.04818 20.1934 26.1665 2 2458522.7767477 367120259 1475.6789134376 62.387840076475 26.3115675382042 4.72153269101177 836.998572498996 109.307269109808 7.7088725471214 1.03314698755175 0.273081158351051 13.7030004501343 0.0529999993741512 4.58799982070923 0.349000006914139 2458165.895058 2458450.042049 56
 217 367 15 3 ZTF_r 768279725915 0 2.0881 582.355 6.16159 26.1694 5.6033e-06 0.0226718 0.0883127 8.71442e-06 580 30. 0.053034 0.046549 20.2614 26.1694 2 2458522.7797222 367120259 301.593898410499 75.2664228902005 4.45734321337438 3.45868371847952 -419.601661103066 140.847732294824 -2.99918000488718 1.03199905892528 0.273081158351051 13.7030004501343 0.0529999993741512 4.58799982070923 0.349000006914139 2458165.895058 2458450.042049 56
 218 367 15 3 ZTF_r 768282695915 0 2.3558 583.42 6.15151 26.1675 4.9201e-06 0.0211621 0.0925791 7.70985e-06 579 30. 0.056765 0.047801 20.1534 26.1675 2 2458522.7826968 367120259 -714.428246906144 59.0740570404461 -13.4529218817149 5.90538551950161 -234.039454418757 105.427836068405 -2.23485307482581 1.03442839991985 0.273081158351051 13.7030004501343 0.0529999993741512 4.58799982070923 0.349000006914139 2458165.895058 2458450.042049 56
 219 367 15 3 ZTF_r 768285685915 0 2.2288 583.725 6.13247 26.174 5.846e-06 0.022908 0.0872636 9.12644e-06 578 30. 0.053075 0.049641 20.207 26.174 2 2458522.7856829 367120259 1716.79617218831 89.5855209039937 21.3174726332441 2.7379964027387 536.869353964356 159.402753736849 3.3906892276422 1.03473453203976 0.273081158351051 13.7030004501343 0.0529999993741512 4.58799982070923 0.349000006914139 2458165.895058 2458450.042049 56
 220 367 15 3 ZTF_r 768288665915 0 2.295 583.367 6.11681 26.1823 1.18954e-05 0.0327972 0.0849253 1.86924e-05 578 30. 0.052416 0.05121 20.2292 26.1823 2 2458522.788669 367120259 -601.580078975816 51.4241727121921 -13.0131049922543 11.0152584149001 865.868946876792 93.1145513863881 9.36159398367811 1.03529683202763 0.273081158351051 13.7030004501343 0.0529999993741512 4.58799982070923 0.349000006914139 2458165.895058 2458450.042049 56
 221 367 15 3 ZTF_r 768291655915 0 2.2198 584.531 6.10646 26.174 4.7614e-06 0.0206985 0.0885748 7.45797e-06 577 30. 0.051844 0.044425 20.2302 26.174 2 2458522.7916551 367120259 360.816758672954 56.2094737000207 7.14055523526598 2.75857969556654 686.424247744047 102.396342767058 6.74875035447335 1.03249325798559 0.273081158351051 13.7030004501343 0.0529999993741512 4.58799982070923 0.349000006914139 2458165.895058 2458450.042049 56
 222 367 15 3 ZTF_r 768294655915 0 2.3684 589.628 6.08531 26.1845 5.2921e-06 0.0218434 0.0864522 8.29306e-06 577 30. 0.053075 0.050616 20.2045 26.1845 2 2458522.7946528 367120259 -476.581890220531 90.6102574023549 -5.85079622348589 2.84865154606014 -458.421393064975 162.129851848835 -2.84653863714621 1.03362768490666 0.273081158351051 13.7030004501343 0.0529999993741512 4.58799982070923 0.349000006914139 2458165.895058 2458450.042049 56
 223 367 15 3 ZTF_r 768297665915 0 2.6266 588.845 6.10404 26.1705 5.9487e-06 0.0231667 0.0870559 9.29677e-06 578 30. 0.059539 0.049956 20.092 26.1705 2 2458522.797662 367120259 626.660900201916 64.9545686181306 10.7319266689227 2.06826483063425 198.562479166523 106.374700669604 1.87920443140766 1.04461926664859 0.273081158351051 13.7030004501343 0.0529999993741512 4.58799982070923 0.349000006914139 2458165.895058 2458450.042049 56
 224 367 15 3 ZTF_r 768300695915 0 2.5515 592.684 6.06354 26.1807 6.2843e-06 0.0238256 0.0856128 9.85727e-06 579 30. 0.056357 0.049532 20.1411 26.1807 2 2458522.8006944 367120259 -1162.61639089969 61.5616690449356 -21.0078136699129 5.6817347185921 -1742.65196911154 104.122919086535 -16.8492090480942 1.04483688659936 0.273081158351051 13.7030004501343 0.0529999993741512 4.58799982070923 0.349000006914139 2458165.895058 2458450.042049 56
 225 367 15 3 ZTF_r 768303715915 0 2.375 589.84 6.07058 26.1885 5.6959e-06 0.0227349 0.081865 8.92994e-06 578 30. 0.056133 0.051 20.1905 26.1885 2 2458522.8037153 367120259 287.371162212222 64.131723082059 4.98453990097671 2.59917216819584 296.966985161738 113.853879098447 2.62588395986281 1.03457586059245 0.273081158351051 13.7030004501343 0.0529999993741512 4.58799982070923 0.349000006914139 2458165.895058 2458450.042049 56
 226 367 15 3 ZTF_r 768306755915 0 2.4563 593.39 6.04569 26.1944 5.6044e-06 0.0225485 0.0812702 8.77444e-06 579 30. 0.052452 0.050307 20.1826 26.1944 2 2458522.8067593 367120259 -2135.2094765806 68.9289424570879 -34.4582862164503 4.70734664856393 -850.857110828123 122.946870519019 -6.9671369332742 1.03278180397151 0.273081158351051 13.7030004501343 0.0529999993741512 4.58799982070923 0.349000006914139 2458165.895058 2458450.042049 56
 227 367 15 3 ZTF_r 768309815915 0 2.4013 590.002 6.0391 26.1855 5.2531e-06 0.0217418 0.0844312 8.22817e-06 576 30. 0.056853 0.051823 20.1753 26.1855 2 2458522.8098148 367120259 241.33412094986 64.7293823915584 4.14736317002179 3.51543918681806 743.298365729452 114.47084573185 6.5370751670793 1.03370074834013 0.273081158351051 13.7030004501343 0.0529999993741512 4.58799982070923 0.349000006914139 2458165.895058 2458450.042049 56
 228 367 15 3 ZTF_r 768312855915 0 2.497 591.932 5.87154 26.1896 5.4401e-06 0.0220778 0.0836682 8.52352e-06 576 30. 0.057021 0.054066 20.2168 26.1896 2 2458522.8128588 367120259 564.941861632452 78.8981823183137 7.96510600217069 2.60324435091863 482.104446512301 138.147709358352 3.51327901093464 1.0332474838891 0.273081158351051 13.7030004501343 0.0529999993741512 4.58799982070923 0.349000006914139 2458165.895058 2458450.042049 56
 229 367 15 3 ZTF_r 768316045915 0 2.6417 592.427 6.00752 26.1903 5.8769e-06 0.0229735 0.0830881 9.20673e-06 577 30. 0.05882 0.055328 20.1118 26.1903 2 2458522.8160417 367120259 -1050.44072374692 64.8160673977587 -18.0278391251029 3.4102645411445 -50.8320684180136 109.791727797216 -0.466104563159312 1.03873107255816 0.273081158351051 13.7030004501343 0.0529999993741512 4.58799982070923 0.349000006914139 2458165.895058 2458450.042049 56
 230 367 15 3 ZTF_r 768319215915 0 2.3766 597.412 5.97977 26.2001 5.5865e-06 0.022466 0.0826886 8.73036e-06 578 30. 0.052715 0.048685 20.2325 26.2001 2 2458522.819213 367120259 -1235.81103935788 77.4937233952031 -17.7394578653448 3.57881919935944 -859.408885324023 139.878850853985 -6.1853314373868 1.03216378461548 0.273081158351051 13.7030004501343 0.0529999993741512 4.58799982070923 0.349000006914139 2458165.895058 2458450.042049 56
 231 367 15 3 ZTF_r 768322375915 0 2.3419 593.951 5.86008 26.2098 5.156e-06 0.021612 0.0780517 8.08318e-06 577 30. 0.052855 0.046311 20.2525 26.2098 2 2458522.8223727 367120259 523.909894611469 73.5172406276599 7.92724359438993 5.13109769744455 1040.97119842235 131.414989966719 7.97460167672889 1.03211183765773 0.273081158351051 13.7030004501343 0.0529999993741512 4.58799982070923 0.349000006914139 2458165.895058 2458450.042049 56
 232 367 15 3 ZTF_r 768325545915 0 2.4411 594.645 5.83059 26.198 5.4199e-06 0.0222042 0.077555 8.49384e-06 577 30. 0.056688 0.051233 20.2131 26.198 2 2458522.825544 367120259 221.452791675727 70.4171288073827 3.49830481160533 2.66966063089192 522.277414715204 123.479154360426 4.25816799504262 1.03552446075257 0.273081158351051 13.7030004501343 0.0529999993741512 4.58799982070923 0.349000006914139 2458165.895058 2458450.042049 56
 233 367 15 3 ZTF_r 768328765915 0 2.6619 596.121 5.94466 26.2006 4.8843e-06 0.0211072 0.0799724 7.64127e-06 579 30. 0.058434 0.04783 20.1319 26.2006 2 2458522.8287616 367120259 -401.026856598357 72.5278671295655 -6.15068312198164 2.82054567859149 642.449221893592 123.884258558787 5.22080982596659 1.03720199084987 0.273081158351051 13.7030004501343 0.0529999993741512 4.58799982070923 0.349000006914139 2458165.895058 2458450.042049 56
 234 367 15 3 ZTF_r 768331965915 0 2.6366 596.106 5.97158 26.1981 5.9109e-06 0.023063 0.079994 9.28074e-06 575 30. 0.056869 0.049211 20.1368 26.1981 2 2458522.8319676 367120259 -1360.28789356856 59.9599105144056 -25.2362405237896 5.30304709596435 15.5472832703931 100.883340990076 0.155149452467781 1.0429472931112 0.273081158351051 13.7030004501343 0.0529999993741512 4.58799982070923 0.349000006914139 2458165.895058 2458450.042049 56
 235 367 15 3 ZTF_r 768335185915 0 2.8702 596.986 5.84134 26.202 6.9423e-06 0.0249432 0.0768179 1.0859e-05 576 30. 0.061617 0.048874 20.0971 26.202 2 2458522.8351852 367120259 -531.547891934114 73.3954470780335 -8.05615996247426 2.92835870273326 205.205405045409 117.948951885396 1.75149903371412 1.05053868460687 0.273081158351051 13.7030004501343 0.0529999993741512 4.58799982070923 0.349000006914139 2458165.895058 2458450.042049 56
 236 367 15 3 ZTF_r 768338405915 0 2.5688 598.563 5.82968 26.2076 5.3451e-06 0.0219793 0.0763644 8.40286e-06 576 30. 0.059652 0.046939 20.2264 26.2076 2 2458522.8384028 367120259 -508.191624536709 88.1788339629193 -6.41088450117735 2.82678720201763 -297.735624279537 154.383434255341 -1.94153532265319 1.03472817624249 0.273081158351051 13.7030004501343 0.0529999993741512 4.58799982070923 0.349000006914139 2458165.895058 2458450.042049 56
 237 367 15 3 ZTF_r 768341625915 0 2.5243 600.863 5.94241 26.213 5.6931e-06 0.0226077 0.0736365 8.91844e-06 577 30. 0.05864 0.045852 20.2185 26.213 2 2458522.8416204 367120259 -809.459134068854 68.7635534832452 -13.0945753064702 4.19332483944861 -839.412297495445 122.026032868466 -6.925291003482 1.03204841358934 0.273081158351051 13.7030004501343 0.0529999993741512 4.58799982070923 0.349000006914139 2458165.895058 2458450.042049 56
 238 367 15 3 ZTF_r 768344825915 0 2.3996 598.077 5.96353 26.2043 5.694e-06 0.0226576 0.0780961 8.9223e-06 577 30. 0.058044 0.0455 20.2004 26.2043 2 2458522.8448264 367120259 -1009.80304333774 73.861841785042 -15.2079733744411 7.07299854126802 756.358117624352 132.46243179274 5.74843918202385 1.03208836434359 0.273081158351051 13.7030004501343 0.0529999993741512 4.58799982070923 0.349000006914139 2458165.895058 2458450.042049 56
 239 367 15 3 ZTF_r 768348045915 0 2.5827 601.427 5.89051 26.2162 6.3912e-06 0.0240548 0.0736953 9.98379e-06 578 30. 0.059028 0.047742 20.1641 26.2162 2 2458522.848044 367120259 -1596.36468273857 69.7611254123997 -25.4550194956531 6.03430576222872 -505.953575032445 120.581232326137 -4.2242162535925 1.03409252007593 0.273081158351051 13.7030004501343 0.0529999993741512 4.58799982070923 0.349000006914139 2458165.895058 2458450.042049 56
 240 367 15 3 ZTF_r 768351235915 0 2.6258 598.001 5.87889 26.2025 5.8478e-06 0.0229948 0.0822703 9.14361e-06 577 30. 0.062846 0.047886 20.1647 26.2025 2 2458522.8512384 367120259 -723.530022338638 61.769388028488 -13.0298092829929 7.39988321580423 812.754742821501 106.098938735475 7.71194040702115 1.03617312871807 0.273081158351051 13.7030004501343 0.0529999993741512 4.58799982070923 0.349000006914139 2458165.895058 2458450.042049 56
 241 367 15 3 ZTF_r 768354445915 0 2.6959 603.089 5.86749 26.2016 6.3099e-06 0.0238257 0.0784485 9.88389e-06 576 30. 0.058306 0.050388 20.13 26.2016 2 2458522.8544444 367120259 -1698.33518080905 65.9911568688507 -28.6280960240206 3.49442788491108 -682.349361736558 109.199286267959 -6.29074646386513 1.04668846954066 0.273081158351051 13.7030004501343 0.0529999993741512 4.58799982070923 0.349000006914139 2458165.895058 2458450.042049 56
 242 367 15 3 ZTF_r 768357655915 0 2.5292 601.308 5.89714 26.2088 7.1389e-06 0.0254118 0.0815981 1.12022e-05 579 30. 0.057107 0.047848 20.1944 26.2088 2 2458522.8576505 367120259 -5.59723005332415 63.6701826585949 -0.0977894182797035 4.41611272775182 135.500334582089 108.78058695458 1.25401913108316 1.0389114736505 0.273081158351051 13.7030004501343 0.0529999993741512 4.58799982070923 0.349000006914139 2458165.895058 2458450.042049 56
 243 367 15 3 ZTF_r 768360845915 0 2.5547 605.118 5.88375 26.1979 5.8824e-06 0.0231713 0.0882038 9.27381e-06 580 30. 0.057454 0.048116 20.1746 26.1979 2 2458522.8608449 367120259 -768.334324564594 66.7605129796145 -12.8022225125462 3.31566825424379 -607.898565037516 111.830949199745 -5.47248146624717 1.04697919636412 0.273081158351051 13.7030004501343 0.0529999993741512 4.58799982070923 0.349000006914139 2458165.895058 2458450.042049 56
 244 367 15 3 ZTF_r 768364035915 0 2.3881 599.149 5.89007 26.201 4.5549e-06 0.0203334 0.0866161 7.16349e-06 579 30. 0.054645 0.046072 20.2418 26.201 2 2458522.8640394 367120259 38.9033210220238 86.419317354419 0.500761171307103 4.3233368969643 724.717580508038 151.695686375236 4.80961992092892 1.03703705325749 0.273081158351051 13.7030004501343 0.0529999993741512 4.58799982070923 0.349000006914139 2458165.895058 2458450.042049 56
 245 367 15 3 ZTF_r 768367225915 0 2.1508 604.99 5.87939 26.2087 5.0394e-06 0.0213801 0.089751 7.88785e-06 580 30. 0.051604 0.042031 20.3114 26.2087 2 2458522.8672222 367120259 -1204.91134212163 68.9813222986641 -19.4302495542018 4.99211338337054 -321.734967701263 128.398456774544 -2.52263056236311 1.03581891776993 0.273081158351051 13.7030004501343 0.0529999993741512 4.58799982070923 0.349000006914139 2458165.895058 2458450.042049 56
 246 367 15 3 ZTF_r 768370415915 0 2.1483 598.82 5.94448 26.1987 4.6847e-06 0.0205687 0.0889328 7.34532e-06 580 30. 0.052129 0.045933 20.2918 26.1987 2 2458522.8704167 367120259 207.786053642176 73.4743219763957 3.14583260142941 4.34014262593197 1177.89836407279 135.17402569017 8.77262899636593 1.03640889589916 0.273081158351051 13.7030004501343 0.0529999993741512 4.58799982070923 0.349000006914139 2458165.895058 2458450.042049 56
 247 367 15 3 ZTF_r 768373585915 0 2.2732 604.378 5.96948 26.1997 4.572e-06 0.0202857 0.0861481 7.14859e-06 578 30. 0.053836 0.047214 20.2527 26.1997 2 2458522.873588 367120259 -951.481976391066 60.4988112760993 -17.4947816181043 3.12768505333706 -723.224626007494 108.704709651342 -6.69792125667418 1.04088844625783 0.273081158351051 13.7030004501343 0.0529999993741512 4.58799982070923 0.349000006914139 2458165.895058 2458450.042049 56
 248 367 15 3 ZTF_r 768376755915 0 2.4039 600.47 5.9512 26.2048 4.9018e-06 0.0210073 0.0856438 7.67227e-06 579 30. 0.055986 0.046623 20.2511 26.2048 2 2458522.8767593 367120259 -202.889003292844 82.6135749604336 -2.73188173065246 6.44137913192138 -364.036148030984 145.2282619889 -2.52353052645339 1.04064394915464 0.273081158351051 13.7030004501343 0.0529999993741512 4.58799982070923 0.349000006914139 2458165.895058 2458450.042049 56
 249 367 15 3 ZTF_r 768379915915 0 2.1395 602.018 5.947 26.1946 5.3053e-06 0.0218322 0.0878501 8.29793e-06 578 30. 0.052082 0.0433 20.2957 26.1946 2 2458522.879919 367120259 -52.1348956515909 71.7561606690762 -0.808209807255256 2.68966891053034 117.869592489581 133.503180998972 0.888843622216979 1.03484123836524 0.273081158351051 13.7030004501343 0.0529999993741512 4.58799982070923 0.349000006914139 2458165.895058 2458450.042049 56
 250 367 15 3 ZTF_r 768383075915 0 2.254 602.235 5.99345 26.2073 4.6148e-06 0.0203708 0.0855411 7.22641e-06 579 30. 0.052507 0.042887 20.2895 26.2073 2 2458522.8830787 367120259 -348.049740316492 55.9550349616218 -6.91921688208526 4.73977752017892 310.012268406057 102.710570631825 3.03863776581527 1.03683220105778 0.273081158351051 13.7030004501343 0.0529999993741512 4.58799982070923 0.349000006914139 2458165.895058 2458450.042049 56
 251 367 15 3 ZTF_r 768386235915 0 2.3114 602.981 5.9714 26.1975 5.0509e-06 0.0212795 0.0871302 7.92181e-06 577 30. 0.055744 0.044517 20.2745 26.1975 2 2458522.8862384 367120259 -546.377525576958 72.8091454458362 -8.34760122800436 3.2954145040594 -646.637953765599 131.473975086943 -4.95149779382551 1.0376127061238 0.273081158351051 13.7030004501343 0.0529999993741512 4.58799982070923 0.349000006914139 2458165.895058 2458450.042049 56
 252 367 15 3 ZTF_r 768389385915 0 2.2702 604.461 5.9214 26.2148 4.9007e-06 0.0210705 0.0820534 7.68504e-06 580 30. 0.055148 0.045471 20.31 26.2148 2 2458522.8893866 367120259 -792.814251816151 57.0026909909934 -15.4714454794226 6.84062462441867 -956.455043155016 104.513505473633 -9.21313296818984 1.03830421517993 0.273081158351051 13.7030004501343 0.0529999993741512 4.58799982070923 0.349000006914139 2458165.895058 2458450.042049 56
 253 367 15 3 ZTF_r 768392535915 0 2.2706 599.29 5.97488 26.1994 5.3263e-06 0.0219826 0.0881597 8.34295e-06 579 30. 0.055152 0.044862 20.275 26.1994 2 2458522.8925347 367120259 210.741004200519 69.910809094132 3.35320046659331 3.46483367391623 566.154482188097 126.249730728166 4.51460420479236 1.03887972723968 0.273081158351051 13.7030004501343 0.0529999993741512 4.58799982070923 0.349000006914139 2458165.895058 2458450.042049 56
 254 367 15 3 ZTF_r 768395675915 0 2.3939 602.693 5.97393 26.1904 5.2261e-06 0.0216195 0.0974746 8.16361e-06 577 30. 0.051425 0.045889 20.2353 26.1904 2 2458522.8956713 367120259 -210.90191753622 81.6158452664656 -2.87449029482283 2.94656582714249 -293.630400080248 141.479679932299 -2.08940264679875 1.05422057501037 0.273081158351051 13.7030004501343 0.0529999993741512 4.58799982070923 0.349000006914139 2458165.895058 2458450.042049 56
 255 367 15 3 ZTF_r 770440595915 0 2.5825 593.513 6.23394 26.1754 5.6466e-06 0.0225768 0.094993 8.87154e-06 578 30. 0.053144 0.049515 20.0871 26.1754 1 2458524.9405903 367120259 8.35423159104461 152.680131968293 0.0608665638392801 1.99217244223049 -150.822318162734 249.316416889878 -0.609017717514266 1.05868504087411 0.273081158351051 13.7030004501343 0.0529999993741512 4.58799982070923 0.349000006914139 2458165.895058 2458450.042049 56
 256 367 15 3 ZTF_g 784313915915 0 1.9306 375.89 10.4737 25.6459 2.54959e-05 0.0414514 -0.0332539 5.39748e-05 427 30. 0.045405 0.049614 19.3201 25.6459 1 2458538.813912 367120159 332.06490521943 49.4527059816606 7.46943443521888 1.91014627386509 869.341262415348 90.9446256030869 9.62339797466249 1.05135902515959 0.201734294401603 14.1460000991821 0.0430000014603138 4.99200010299683 0.158000007271767 2458204.687002 2458465.019988 56
 257 367 15 3 ZTF_r 784355345915 33554432 1.9338 361.152 14.4003 25.6267 1.85569e-05 0.0397959 0.113706 2.95261e-05 541 30. 0.0519 0.055862 19.0118 25.6267 1 2458538.8553472 367120259 -745.440225894809 79.6855000190894 -10.4061078741149 3.25770352139131 -1638.80699809186 148.266267892397 -11.1275779782221 1.05831614165927 0.273081158351051 13.7030004501343 0.0529999993741512 4.58799982070923 0.349000006914139 2458165.895058 2458450.042049 56
 258 367 15 3 ZTF_r 787294455915 33554480 2.1657 10.2094 9.47712 21.8616 0.00304212 0.068735 0.134414 0.00734908 17 30. 0.070875 0.066201 15.5154 21.8616 1 2458541.794456 367120259 263.750053096279 48.1564871778481 6.09245818965464 0.995380316019248 345.844765095326 87.0218298605864 4.00099664698137 1.07812145570666 0.273081158351051 13.7030004501343 0.0529999993741512 4.58799982070923 0.349000006914139 2458165.895058 2458450.042049 56
 259 367 15 3 ZTF_r 793203785915 0 2.6967 577.794 6.90417 26.1488 8.7139e-06 0.0283548 0.0862189 1.3639e-05 579 30. 0.058918 0.057946 19.9565 26.1488 1 2458547.7037847 367120259 -1848.72114728096 75.5481198303141 -27.2209043605721 5.71125634856367 -1142.66295989929 124.156072478521 -9.26542566716773 1.05438415412423 0.273081158351051 13.7030004501343 0.0529999993741512 4.58799982070923 0.349000006914139 2458165.895058 2458450.042049 56
 260 367 15 3 ZTF_g 793314605915 0 2.473 648.394 4.59898 26.2757 9.8054e-06 0.0299587 -0.0858876 1.5756e-05 576 30. 0.054107 0.052938 20.5314 26.2757 1 2458547.8146065 367120159 496.78894244718 52.1892720892916 10.5887692005584 6.56738616803972 244.807340280448 85.2947716239321 2.88946352877101 1.04867384148263 0.201734294401603 14.1460000991821 0.0430000014603138 4.99200010299683 0.158000007271767 2458204.687002 2458465.019988 56
 261 367 15 3 ZTF_r 802273345915 0 9.3297 590.166 7.12673 26.1584 7.6459e-06 0.0262798 0.109252 1.19861e-05 577 30. 0.058615 0.065087 19.9658 26.1584 1 2458556.7733449 367120259 4700.91506516071 150.416567344972 34.7649438449133 2.29470100530676 3605.39510743976 227.252280280158 15.9720186149497 1.09340429199528 0.273081158351051 13.7030004501343 0.0529999993741512 4.58799982070923 0.349000006914139 2458165.895058 2458450.042049 56
 262 367 15 3 ZTF_g 802338835915 0 4.5337 643.541 6.95016 26.2262 3.19344e-05 0.0455145 -0.0172659 6.82898e-05 408 30. 0.066274 0.080013 19.5731 26.2262 1 2458556.838831 367120159 1185.01500300804 93.8813064287398 14.0410480451918 2.83342406565338 1226.56986573928 112.433133220636 10.9828023909323 1.22365162321059 0.201734294401603 14.1460000991821 0.0430000014603138 4.99200010299683 0.158000007271767 2458204.687002 2458465.019988 56
 263 367 15 3 ZTF_r 805250925915 0 2.139 587.291 11.3821 26.1732 8.1195e-06 0.0273424 0.0987771 1.26752e-05 579 30. 0.054132 0.051397 19.6531 26.1732 1 2458559.7509259 367120259 461.565254909713 78.9349533642688 6.50456942690438 1.85706726458698 232.610677767611 142.378477623839 1.64475226855776 1.04546310119572 0.273081158351051 13.7030004501343 0.0529999993741512 4.58799982070923 0.349000006914139 2458165.895058 2458450.042049 56
 264 367 15 3 ZTF_g 805312245915 0 2.8107 638.153 12.7211 26.2463 2.21233e-05 0.03847 -0.0397906 4.68371e-05 430 30. 0.056296 0.062717 19.3681 26.2463 1 2458559.8122454 367120159 -196.394193500804 85.3828439525631 -2.55866146412708 2.11441655376275 46.3397237598628 133.049014377512 0.350636377757508 1.06556945705144 0.201734294401603 14.1460000991821 0.0430000014603138 4.99200010299683 0.158000007271767 2458204.687002 2458465.019988 56
